   0.0000000e+00  -1.0321934e+00   0.0000000e+00  -1.0321934e+00
   1.0000000e-03  -1.0299847e+00   0.0000000e+00  -1.0299847e+00
   2.0000000e-03  -1.0277744e+00   0.0000000e+00  -1.0277744e+00
   3.0000000e-03  -1.0255623e+00   0.0000000e+00  -1.0255623e+00
   4.0000000e-03  -1.0233485e+00   0.0000000e+00  -1.0233485e+00
   5.0000000e-03  -1.0211330e+00   0.0000000e+00  -1.0211330e+00
   6.0000000e-03  -1.0189158e+00   0.0000000e+00  -1.0189158e+00
   7.0000000e-03  -1.0166970e+00   0.0000000e+00  -1.0166970e+00
   8.0000000e-03  -1.0144764e+00   0.0000000e+00  -1.0144764e+00
   9.0000000e-03  -1.0122541e+00   0.0000000e+00  -1.0122541e+00
   1.0000000e-02  -1.0100302e+00   0.0000000e+00  -1.0100302e+00
   1.1000000e-02  -1.0078046e+00   0.0000000e+00  -1.0078046e+00
   1.2000000e-02  -1.0055773e+00   0.0000000e+00  -1.0055773e+00
   1.3000000e-02  -1.0033484e+00   0.0000000e+00  -1.0033484e+00
   1.4000000e-02  -1.0011178e+00   0.0000000e+00  -1.0011178e+00
   1.5000000e-02  -9.9888564e-01   0.0000000e+00  -9.9888564e-01
   1.6000000e-02  -9.9665179e-01   0.0000000e+00  -9.9665179e-01
   1.7000000e-02  -9.9441631e-01   0.0000000e+00  -9.9441631e-01
   1.8000000e-02  -9.9217921e-01   0.0000000e+00  -9.9217921e-01
   1.9000000e-02  -9.8994050e-01   0.0000000e+00  -9.8994050e-01
   2.0000000e-02  -9.8770017e-01   0.0000000e+00  -9.8770017e-01
   2.1000000e-02  -9.8545823e-01   0.0000000e+00  -9.8545823e-01
   2.2000000e-02  -9.8321470e-01   0.0000000e+00  -9.8321470e-01
   2.3000000e-02  -9.8096957e-01   0.0000000e+00  -9.8096957e-01
   2.4000000e-02  -9.7872286e-01   0.0000000e+00  -9.7872286e-01
   2.5000000e-02  -9.7647457e-01   0.0000000e+00  -9.7647457e-01
   2.6000000e-02  -9.7422471e-01   0.0000000e+00  -9.7422471e-01
   2.7000000e-02  -9.7197328e-01   0.0000000e+00  -9.7197328e-01
   2.8000000e-02  -9.6972029e-01   0.0000000e+00  -9.6972029e-01
   2.9000000e-02  -9.6746575e-01   0.0000000e+00  -9.6746575e-01
   3.0000000e-02  -9.6520966e-01   0.0000000e+00  -9.6520966e-01
   3.1000000e-02  -9.6295203e-01   0.0000000e+00  -9.6295203e-01
   3.2000000e-02  -9.6069286e-01   0.0000000e+00  -9.6069286e-01
   3.3000000e-02  -9.5843217e-01   0.0000000e+00  -9.5843217e-01
   3.4000000e-02  -9.5616995e-01   0.0000000e+00  -9.5616995e-01
   3.5000000e-02  -9.5390622e-01   0.0000000e+00  -9.5390622e-01
   3.6000000e-02  -9.5164098e-01   0.0000000e+00  -9.5164098e-01
   3.7000000e-02  -9.4937424e-01   0.0000000e+00  -9.4937424e-01
   3.8000000e-02  -9.4710601e-01   0.0000000e+00  -9.4710601e-01
   3.9000000e-02  -9.4483628e-01   0.0000000e+00  -9.4483628e-01
   4.0000000e-02  -9.4256507e-01   0.0000000e+00  -9.4256507e-01
   4.1000000e-02  -9.4029239e-01   0.0000000e+00  -9.4029239e-01
   4.2000000e-02  -9.3801823e-01   0.0000000e+00  -9.3801823e-01
   4.3000000e-02  -9.3574262e-01   0.0000000e+00  -9.3574262e-01
   4.4000000e-02  -9.3346554e-01   0.0000000e+00  -9.3346554e-01
   4.5000000e-02  -9.3118701e-01   0.0000000e+00  -9.3118701e-01
   4.6000000e-02  -9.2890705e-01   0.0000000e+00  -9.2890705e-01
   4.7000000e-02  -9.2662564e-01   0.0000000e+00  -9.2662564e-01
   4.8000000e-02  -9.2434280e-01   0.0000000e+00  -9.2434280e-01
   4.9000000e-02  -9.2205854e-01   0.0000000e+00  -9.2205854e-01
   5.0000000e-02  -9.1977286e-01   0.0000000e+00  -9.1977286e-01
   5.1000000e-02  -9.1748577e-01   0.0000000e+00  -9.1748577e-01
   5.2000000e-02  -9.1519727e-01   0.0000000e+00  -9.1519727e-01
   5.3000000e-02  -9.1290738e-01   0.0000000e+00  -9.1290738e-01
   5.4000000e-02  -9.1061609e-01   0.0000000e+00  -9.1061609e-01
   5.5000000e-02  -9.0832342e-01   0.0000000e+00  -9.0832342e-01
   5.6000000e-02  -9.0602937e-01   0.0000000e+00  -9.0602937e-01
   5.7000000e-02  -9.0373395e-01   0.0000000e+00  -9.0373395e-01
   5.8000000e-02  -9.0143716e-01   0.0000000e+00  -9.0143716e-01
   5.9000000e-02  -8.9913902e-01   0.0000000e+00  -8.9913902e-01
   6.0000000e-02  -8.9683952e-01   0.0000000e+00  -8.9683952e-01
   6.1000000e-02  -8.9453867e-01   0.0000000e+00  -8.9453867e-01
   6.2000000e-02  -8.9223649e-01   0.0000000e+00  -8.9223649e-01
   6.3000000e-02  -8.8993297e-01   0.0000000e+00  -8.8993297e-01
   6.4000000e-02  -8.8762813e-01   0.0000000e+00  -8.8762813e-01
   6.5000000e-02  -8.8532196e-01   0.0000000e+00  -8.8532196e-01
   6.6000000e-02  -8.8301449e-01   0.0000000e+00  -8.8301449e-01
   6.7000000e-02  -8.8070570e-01   0.0000000e+00  -8.8070570e-01
   6.8000000e-02  -8.7839562e-01   0.0000000e+00  -8.7839562e-01
   6.9000000e-02  -8.7608424e-01   0.0000000e+00  -8.7608424e-01
   7.0000000e-02  -8.7377158e-01   0.0000000e+00  -8.7377158e-01
   7.1000000e-02  -8.7145764e-01   0.0000000e+00  -8.7145764e-01
   7.2000000e-02  -8.6914242e-01   0.0000000e+00  -8.6914242e-01
   7.3000000e-02  -8.6682594e-01   0.0000000e+00  -8.6682594e-01
   7.4000000e-02  -8.6450819e-01   0.0000000e+00  -8.6450819e-01
   7.5000000e-02  -8.6218920e-01   0.0000000e+00  -8.6218920e-01
   7.6000000e-02  -8.5986895e-01   0.0000000e+00  -8.5986895e-01
   7.7000000e-02  -8.5754747e-01   0.0000000e+00  -8.5754747e-01
   7.8000000e-02  -8.5522475e-01   0.0000000e+00  -8.5522475e-01
   7.9000000e-02  -8.5290080e-01   0.0000000e+00  -8.5290080e-01
   8.0000000e-02  -8.5057563e-01   0.0000000e+00  -8.5057563e-01
   8.1000000e-02  -8.4824925e-01   0.0000000e+00  -8.4824925e-01
   8.2000000e-02  -8.4592167e-01   0.0000000e+00  -8.4592167e-01
   8.3000000e-02  -8.4359288e-01   0.0000000e+00  -8.4359288e-01
   8.4000000e-02  -8.4126289e-01   0.0000000e+00  -8.4126289e-01
   8.5000000e-02  -8.3893172e-01   0.0000000e+00  -8.3893172e-01
   8.6000000e-02  -8.3659937e-01   0.0000000e+00  -8.3659937e-01
   8.7000000e-02  -8.3426585e-01   0.0000000e+00  -8.3426585e-01
   8.8000000e-02  -8.3193115e-01   0.0000000e+00  -8.3193115e-01
   8.9000000e-02  -8.2959530e-01   0.0000000e+00  -8.2959530e-01
   9.0000000e-02  -8.2725829e-01   0.0000000e+00  -8.2725829e-01
   9.1000000e-02  -8.2492014e-01   0.0000000e+00  -8.2492014e-01
   9.2000000e-02  -8.2258084e-01   0.0000000e+00  -8.2258084e-01
   9.3000000e-02  -8.2024041e-01   0.0000000e+00  -8.2024041e-01
   9.4000000e-02  -8.1789886e-01   0.0000000e+00  -8.1789886e-01
   9.5000000e-02  -8.1555618e-01   0.0000000e+00  -8.1555618e-01
   9.6000000e-02  -8.1321239e-01   0.0000000e+00  -8.1321239e-01
   9.7000000e-02  -8.1086749e-01   0.0000000e+00  -8.1086749e-01
   9.8000000e-02  -8.0852149e-01   0.0000000e+00  -8.0852149e-01
   9.9000000e-02  -8.0617440e-01   0.0000000e+00  -8.0617440e-01
   1.0000000e-01  -8.0382621e-01   0.0000000e+00  -8.0382621e-01
   1.0100000e-01  -8.0147695e-01   0.0000000e+00  -8.0147695e-01
   1.0200000e-01  -7.9912662e-01   0.0000000e+00  -7.9912662e-01
   1.0300000e-01  -7.9677521e-01   0.0000000e+00  -7.9677521e-01
   1.0400000e-01  -7.9442275e-01   0.0000000e+00  -7.9442275e-01
   1.0500000e-01  -7.9206924e-01   0.0000000e+00  -7.9206924e-01
   1.0600000e-01  -7.8971467e-01   0.0000000e+00  -7.8971467e-01
   1.0700000e-01  -7.8735907e-01   0.0000000e+00  -7.8735907e-01
   1.0800000e-01  -7.8500243e-01   0.0000000e+00  -7.8500243e-01
   1.0900000e-01  -7.8264477e-01   0.0000000e+00  -7.8264477e-01
   1.1000000e-01  -7.8028608e-01   0.0000000e+00  -7.8028608e-01
   1.1100000e-01  -7.7792638e-01   0.0000000e+00  -7.7792638e-01
   1.1200000e-01  -7.7556568e-01   0.0000000e+00  -7.7556568e-01
   1.1300000e-01  -7.7320398e-01   0.0000000e+00  -7.7320398e-01
   1.1400000e-01  -7.7084128e-01   0.0000000e+00  -7.7084128e-01
   1.1500000e-01  -7.6847760e-01   0.0000000e+00  -7.6847760e-01
   1.1600000e-01  -7.6611293e-01   0.0000000e+00  -7.6611293e-01
   1.1700000e-01  -7.6374730e-01   0.0000000e+00  -7.6374730e-01
   1.1800000e-01  -7.6138069e-01   0.0000000e+00  -7.6138069e-01
   1.1900000e-01  -7.5901313e-01   0.0000000e+00  -7.5901313e-01
   1.2000000e-01  -7.5664462e-01   0.0000000e+00  -7.5664462e-01
   1.2100000e-01  -7.5427516e-01   0.0000000e+00  -7.5427516e-01
   1.2200000e-01  -7.5190476e-01   0.0000000e+00  -7.5190476e-01
   1.2300000e-01  -7.4953343e-01   0.0000000e+00  -7.4953343e-01
   1.2400000e-01  -7.4716117e-01   0.0000000e+00  -7.4716117e-01
   1.2500000e-01  -7.4478799e-01   0.0000000e+00  -7.4478799e-01
   1.2600000e-01  -7.4241391e-01   0.0000000e+00  -7.4241391e-01
   1.2700000e-01  -7.4003891e-01   0.0000000e+00  -7.4003891e-01
   1.2800000e-01  -7.3766302e-01   0.0000000e+00  -7.3766302e-01
   1.2900000e-01  -7.3528624e-01   0.0000000e+00  -7.3528624e-01
   1.3000000e-01  -7.3290857e-01   0.0000000e+00  -7.3290857e-01
   1.3100000e-01  -7.3053002e-01   0.0000000e+00  -7.3053002e-01
   1.3200000e-01  -7.2815060e-01   0.0000000e+00  -7.2815060e-01
   1.3300000e-01  -7.2577032e-01   0.0000000e+00  -7.2577032e-01
   1.3400000e-01  -7.2338918e-01   0.0000000e+00  -7.2338918e-01
   1.3500000e-01  -7.2100719e-01   0.0000000e+00  -7.2100719e-01
   1.3600000e-01  -7.1862436e-01   0.0000000e+00  -7.1862436e-01
   1.3700000e-01  -7.1624068e-01   0.0000000e+00  -7.1624068e-01
   1.3800000e-01  -7.1385618e-01   0.0000000e+00  -7.1385618e-01
   1.3900000e-01  -7.1147085e-01   0.0000000e+00  -7.1147085e-01
   1.4000000e-01  -7.0908471e-01   0.0000000e+00  -7.0908471e-01
   1.4100000e-01  -7.0669776e-01   0.0000000e+00  -7.0669776e-01
   1.4200000e-01  -7.0431000e-01   0.0000000e+00  -7.0431000e-01
   1.4300000e-01  -7.0192144e-01   0.0000000e+00  -7.0192144e-01
   1.4400000e-01  -6.9953210e-01   0.0000000e+00  -6.9953210e-01
   1.4500000e-01  -6.9714198e-01   0.0000000e+00  -6.9714198e-01
   1.4600000e-01  -6.9475107e-01   0.0000000e+00  -6.9475107e-01
   1.4700000e-01  -6.9235940e-01   0.0000000e+00  -6.9235940e-01
   1.4800000e-01  -6.8996697e-01   0.0000000e+00  -6.8996697e-01
   1.4900000e-01  -6.8757378e-01   0.0000000e+00  -6.8757378e-01
   1.5000000e-01  -6.8517984e-01   0.0000000e+00  -6.8517984e-01
   1.5100000e-01  -6.8278516e-01   0.0000000e+00  -6.8278516e-01
   1.5200000e-01  -6.8038974e-01   0.0000000e+00  -6.8038974e-01
   1.5300000e-01  -6.7799360e-01   0.0000000e+00  -6.7799360e-01
   1.5400000e-01  -6.7559674e-01   0.0000000e+00  -6.7559674e-01
   1.5500000e-01  -6.7319916e-01   0.0000000e+00  -6.7319916e-01
   1.5600000e-01  -6.7080087e-01   0.0000000e+00  -6.7080087e-01
   1.5700000e-01  -6.6840188e-01   0.0000000e+00  -6.6840188e-01
   1.5800000e-01  -6.6600220e-01   0.0000000e+00  -6.6600220e-01
   1.5900000e-01  -6.6360183e-01   0.0000000e+00  -6.6360183e-01
   1.6000000e-01  -6.6120078e-01   0.0000000e+00  -6.6120078e-01
   1.6100000e-01  -6.5879906e-01   0.0000000e+00  -6.5879906e-01
   1.6200000e-01  -6.5639667e-01   0.0000000e+00  -6.5639667e-01
   1.6300000e-01  -6.5399362e-01   0.0000000e+00  -6.5399362e-01
   1.6400000e-01  -6.5158992e-01   0.0000000e+00  -6.5158992e-01
   1.6500000e-01  -6.4918557e-01   0.0000000e+00  -6.4918557e-01
   1.6600000e-01  -6.4678058e-01   0.0000000e+00  -6.4678058e-01
   1.6700000e-01  -6.4437496e-01   0.0000000e+00  -6.4437496e-01
   1.6800000e-01  -6.4196872e-01   0.0000000e+00  -6.4196872e-01
   1.6900000e-01  -6.3956185e-01   0.0000000e+00  -6.3956185e-01
   1.7000000e-01  -6.3715438e-01   0.0000000e+00  -6.3715438e-01
   1.7100000e-01  -6.3474629e-01   0.0000000e+00  -6.3474629e-01
   1.7200000e-01  -6.3233762e-01   0.0000000e+00  -6.3233762e-01
   1.7300000e-01  -6.2992835e-01   0.0000000e+00  -6.2992835e-01
   1.7400000e-01  -6.2751849e-01   0.0000000e+00  -6.2751849e-01
   1.7500000e-01  -6.2510806e-01   0.0000000e+00  -6.2510806e-01
   1.7600000e-01  -6.2269706e-01   0.0000000e+00  -6.2269706e-01
   1.7700000e-01  -6.2028549e-01   0.0000000e+00  -6.2028549e-01
   1.7800000e-01  -6.1787337e-01   0.0000000e+00  -6.1787337e-01
   1.7900000e-01  -6.1546069e-01   0.0000000e+00  -6.1546069e-01
   1.8000000e-01  -6.1304748e-01   0.0000000e+00  -6.1304748e-01
   1.8100000e-01  -6.1063373e-01   0.0000000e+00  -6.1063373e-01
   1.8200000e-01  -6.0821945e-01   0.0000000e+00  -6.0821945e-01
   1.8300000e-01  -6.0580464e-01   0.0000000e+00  -6.0580464e-01
   1.8400000e-01  -6.0338932e-01   0.0000000e+00  -6.0338932e-01
   1.8500000e-01  -6.0097349e-01   0.0000000e+00  -6.0097349e-01
   1.8600000e-01  -5.9855716e-01   0.0000000e+00  -5.9855716e-01
   1.8700000e-01  -5.9614034e-01   0.0000000e+00  -5.9614034e-01
   1.8800000e-01  -5.9372303e-01   0.0000000e+00  -5.9372303e-01
   1.8900000e-01  -5.9130523e-01   0.0000000e+00  -5.9130523e-01
   1.9000000e-01  -5.8888697e-01   0.0000000e+00  -5.8888697e-01
   1.9100000e-01  -5.8646823e-01   0.0000000e+00  -5.8646823e-01
   1.9200000e-01  -5.8404904e-01   0.0000000e+00  -5.8404904e-01
   1.9300000e-01  -5.8162939e-01   0.0000000e+00  -5.8162939e-01
   1.9400000e-01  -5.7920929e-01   0.0000000e+00  -5.7920929e-01
   1.9500000e-01  -5.7678875e-01   0.0000000e+00  -5.7678875e-01
   1.9600000e-01  -5.7436779e-01   0.0000000e+00  -5.7436779e-01
   1.9700000e-01  -5.7194639e-01   0.0000000e+00  -5.7194639e-01
   1.9800000e-01  -5.6952458e-01   0.0000000e+00  -5.6952458e-01
   1.9900000e-01  -5.6710235e-01   0.0000000e+00  -5.6710235e-01
   2.0000000e-01  -5.6467972e-01   0.0000000e+00  -5.6467972e-01
   2.0100000e-01  -5.6225669e-01   0.0000000e+00  -5.6225669e-01
   2.0200000e-01  -5.5983327e-01   0.0000000e+00  -5.5983327e-01
   2.0300000e-01  -5.5740947e-01   0.0000000e+00  -5.5740947e-01
   2.0400000e-01  -5.5498529e-01   0.0000000e+00  -5.5498529e-01
   2.0500000e-01  -5.5256073e-01   0.0000000e+00  -5.5256073e-01
   2.0600000e-01  -5.5013581e-01   0.0000000e+00  -5.5013581e-01
   2.0700000e-01  -5.4771054e-01   0.0000000e+00  -5.4771054e-01
   2.0800000e-01  -5.4528492e-01   0.0000000e+00  -5.4528492e-01
   2.0900000e-01  -5.4285895e-01   0.0000000e+00  -5.4285895e-01
   2.1000000e-01  -5.4043264e-01   0.0000000e+00  -5.4043264e-01
   2.1100000e-01  -5.3800601e-01   0.0000000e+00  -5.3800601e-01
   2.1200000e-01  -5.3557906e-01   0.0000000e+00  -5.3557906e-01
   2.1300000e-01  -5.3315179e-01   0.0000000e+00  -5.3315179e-01
   2.1400000e-01  -5.3072421e-01   0.0000000e+00  -5.3072421e-01
   2.1500000e-01  -5.2829632e-01   0.0000000e+00  -5.2829632e-01
   2.1600000e-01  -5.2586815e-01   0.0000000e+00  -5.2586815e-01
   2.1700000e-01  -5.2343969e-01   0.0000000e+00  -5.2343969e-01
   2.1800000e-01  -5.2101094e-01   0.0000000e+00  -5.2101094e-01
   2.1900000e-01  -5.1858192e-01   0.0000000e+00  -5.1858192e-01
   2.2000000e-01  -5.1615264e-01   0.0000000e+00  -5.1615264e-01
   2.2100000e-01  -5.1372309e-01   0.0000000e+00  -5.1372309e-01
   2.2200000e-01  -5.1129329e-01   0.0000000e+00  -5.1129329e-01
   2.2300000e-01  -5.0886324e-01   0.0000000e+00  -5.0886324e-01
   2.2400000e-01  -5.0643296e-01   0.0000000e+00  -5.0643296e-01
   2.2500000e-01  -5.0400244e-01   0.0000000e+00  -5.0400244e-01
   2.2600000e-01  -5.0157170e-01   0.0000000e+00  -5.0157170e-01
   2.2700000e-01  -4.9914074e-01   0.0000000e+00  -4.9914074e-01
   2.2800000e-01  -4.9670956e-01   0.0000000e+00  -4.9670956e-01
   2.2900000e-01  -4.9427818e-01   0.0000000e+00  -4.9427818e-01
   2.3000000e-01  -4.9184661e-01   0.0000000e+00  -4.9184661e-01
   2.3100000e-01  -4.8941484e-01   0.0000000e+00  -4.8941484e-01
   2.3200000e-01  -4.8698288e-01   0.0000000e+00  -4.8698288e-01
   2.3300000e-01  -4.8455076e-01   0.0000000e+00  -4.8455076e-01
   2.3400000e-01  -4.8211846e-01   0.0000000e+00  -4.8211846e-01
   2.3500000e-01  -4.7968599e-01   0.0000000e+00  -4.7968599e-01
   2.3600000e-01  -4.7725337e-01   0.0000000e+00  -4.7725337e-01
   2.3700000e-01  -4.7482060e-01   0.0000000e+00  -4.7482060e-01
   2.3800000e-01  -4.7238769e-01   0.0000000e+00  -4.7238769e-01
   2.3900000e-01  -4.6995464e-01   0.0000000e+00  -4.6995464e-01
   2.4000000e-01  -4.6752147e-01   0.0000000e+00  -4.6752147e-01
   2.4100000e-01  -4.6508817e-01   0.0000000e+00  -4.6508817e-01
   2.4200000e-01  -4.6265475e-01   0.0000000e+00  -4.6265475e-01
   2.4300000e-01  -4.6022123e-01   0.0000000e+00  -4.6022123e-01
   2.4400000e-01  -4.5778761e-01   0.0000000e+00  -4.5778761e-01
   2.4500000e-01  -4.5535389e-01   0.0000000e+00  -4.5535389e-01
   2.4600000e-01  -4.5292008e-01   0.0000000e+00  -4.5292008e-01
   2.4700000e-01  -4.5048620e-01   0.0000000e+00  -4.5048620e-01
   2.4800000e-01  -4.4805224e-01   0.0000000e+00  -4.4805224e-01
   2.4900000e-01  -4.4561821e-01   0.0000000e+00  -4.4561821e-01
   2.5000000e-01  -4.4318413e-01   0.0000000e+00  -4.4318413e-01
   2.5100000e-01  -4.4074999e-01   0.0000000e+00  -4.4074999e-01
   2.5200000e-01  -4.3831581e-01   0.0000000e+00  -4.3831581e-01
   2.5300000e-01  -4.3588158e-01   0.0000000e+00  -4.3588158e-01
   2.5400000e-01  -4.3344733e-01   0.0000000e+00  -4.3344733e-01
   2.5500000e-01  -4.3101305e-01   0.0000000e+00  -4.3101305e-01
   2.5600000e-01  -4.2857875e-01   0.0000000e+00  -4.2857875e-01
   2.5700000e-01  -4.2614444e-01   0.0000000e+00  -4.2614444e-01
   2.5800000e-01  -4.2371012e-01   0.0000000e+00  -4.2371012e-01
   2.5900000e-01  -4.2127581e-01   0.0000000e+00  -4.2127581e-01
   2.6000000e-01  -4.1884151e-01   0.0000000e+00  -4.1884151e-01
   2.6100000e-01  -4.1640722e-01   0.0000000e+00  -4.1640722e-01
   2.6200000e-01  -4.1397296e-01   0.0000000e+00  -4.1397296e-01
   2.6300000e-01  -4.1153872e-01   0.0000000e+00  -4.1153872e-01
   2.6400000e-01  -4.0910453e-01   0.0000000e+00  -4.0910453e-01
   2.6500000e-01  -4.0667037e-01   0.0000000e+00  -4.0667037e-01
   2.6600000e-01  -4.0423627e-01   0.0000000e+00  -4.0423627e-01
   2.6700000e-01  -4.0180223e-01   0.0000000e+00  -4.0180223e-01
   2.6800000e-01  -3.9936825e-01   0.0000000e+00  -3.9936825e-01
   2.6900000e-01  -3.9693434e-01   0.0000000e+00  -3.9693434e-01
   2.7000000e-01  -3.9450051e-01   0.0000000e+00  -3.9450051e-01
   2.7100000e-01  -3.9206676e-01   0.0000000e+00  -3.9206676e-01
   2.7200000e-01  -3.8963311e-01   0.0000000e+00  -3.8963311e-01
   2.7300000e-01  -3.8719956e-01   0.0000000e+00  -3.8719956e-01
   2.7400000e-01  -3.8476611e-01   0.0000000e+00  -3.8476611e-01
   2.7500000e-01  -3.8233277e-01   0.0000000e+00  -3.8233277e-01
   2.7600000e-01  -3.7989956e-01   0.0000000e+00  -3.7989956e-01
   2.7700000e-01  -3.7746647e-01   0.0000000e+00  -3.7746647e-01
   2.7800000e-01  -3.7503351e-01   0.0000000e+00  -3.7503351e-01
   2.7900000e-01  -3.7260070e-01   0.0000000e+00  -3.7260070e-01
   2.8000000e-01  -3.7016803e-01   0.0000000e+00  -3.7016803e-01
   2.8100000e-01  -3.6773552e-01   0.0000000e+00  -3.6773552e-01
   2.8200000e-01  -3.6530316e-01   0.0000000e+00  -3.6530316e-01
   2.8300000e-01  -3.6287098e-01   0.0000000e+00  -3.6287098e-01
   2.8400000e-01  -3.6043897e-01   0.0000000e+00  -3.6043897e-01
   2.8500000e-01  -3.5800714e-01   0.0000000e+00  -3.5800714e-01
   2.8600000e-01  -3.5557550e-01   0.0000000e+00  -3.5557550e-01
   2.8700000e-01  -3.5314406e-01   0.0000000e+00  -3.5314406e-01
   2.8800000e-01  -3.5071282e-01   0.0000000e+00  -3.5071282e-01
   2.8900000e-01  -3.4828178e-01   0.0000000e+00  -3.4828178e-01
   2.9000000e-01  -3.4585097e-01   0.0000000e+00  -3.4585097e-01
   2.9100000e-01  -3.4342037e-01   0.0000000e+00  -3.4342037e-01
   2.9200000e-01  -3.4099001e-01   0.0000000e+00  -3.4099001e-01
   2.9300000e-01  -3.3855988e-01   0.0000000e+00  -3.3855988e-01
   2.9400000e-01  -3.3613000e-01   0.0000000e+00  -3.3613000e-01
   2.9500000e-01  -3.3370037e-01   0.0000000e+00  -3.3370037e-01
   2.9600000e-01  -3.3127099e-01   0.0000000e+00  -3.3127099e-01
   2.9700000e-01  -3.2884188e-01   0.0000000e+00  -3.2884188e-01
   2.9800000e-01  -3.2641304e-01   0.0000000e+00  -3.2641304e-01
   2.9900000e-01  -3.2398447e-01   0.0000000e+00  -3.2398447e-01
   3.0000000e-01  -3.2155620e-01   0.0000000e+00  -3.2155620e-01
   3.0100000e-01  -3.1912821e-01   0.0000000e+00  -3.1912821e-01
   3.0200000e-01  -3.1670052e-01   0.0000000e+00  -3.1670052e-01
   3.0300000e-01  -3.1427314e-01   0.0000000e+00  -3.1427314e-01
   3.0400000e-01  -3.1184607e-01   0.0000000e+00  -3.1184607e-01
   3.0500000e-01  -3.0941932e-01   0.0000000e+00  -3.0941932e-01
   3.0600000e-01  -3.0699289e-01   0.0000000e+00  -3.0699289e-01
   3.0700000e-01  -3.0456680e-01   0.0000000e+00  -3.0456680e-01
   3.0800000e-01  -3.0214105e-01   0.0000000e+00  -3.0214105e-01
   3.0900000e-01  -2.9971564e-01   0.0000000e+00  -2.9971564e-01
   3.1000000e-01  -2.9729059e-01   0.0000000e+00  -2.9729059e-01
   3.1100000e-01  -2.9486590e-01   0.0000000e+00  -2.9486590e-01
   3.1200000e-01  -2.9244157e-01   0.0000000e+00  -2.9244157e-01
   3.1300000e-01  -2.9001762e-01   0.0000000e+00  -2.9001762e-01
   3.1400000e-01  -2.8759405e-01   0.0000000e+00  -2.8759405e-01
   3.1500000e-01  -2.8517086e-01   0.0000000e+00  -2.8517086e-01
   3.1600000e-01  -2.8274807e-01   0.0000000e+00  -2.8274807e-01
   3.1700000e-01  -2.8032568e-01   0.0000000e+00  -2.8032568e-01
   3.1800000e-01  -2.7790370e-01   0.0000000e+00  -2.7790370e-01
   3.1900000e-01  -2.7548214e-01   0.0000000e+00  -2.7548214e-01
   3.2000000e-01  -2.7306099e-01   0.0000000e+00  -2.7306099e-01
   3.2100000e-01  -2.7064028e-01   0.0000000e+00  -2.7064028e-01
   3.2200000e-01  -2.6822000e-01   0.0000000e+00  -2.6822000e-01
   3.2300000e-01  -2.6580016e-01   0.0000000e+00  -2.6580016e-01
   3.2400000e-01  -2.6338077e-01   0.0000000e+00  -2.6338077e-01
   3.2500000e-01  -2.6096183e-01   0.0000000e+00  -2.6096183e-01
   3.2600000e-01  -2.5854336e-01   0.0000000e+00  -2.5854336e-01
   3.2700000e-01  -2.5612536e-01   0.0000000e+00  -2.5612536e-01
   3.2800000e-01  -2.5370783e-01   0.0000000e+00  -2.5370783e-01
   3.2900000e-01  -2.5129079e-01   0.0000000e+00  -2.5129079e-01
   3.3000000e-01  -2.4887424e-01   0.0000000e+00  -2.4887424e-01
   3.3100000e-01  -2.4645818e-01   0.0000000e+00  -2.4645818e-01
   3.3200000e-01  -2.4404263e-01   0.0000000e+00  -2.4404263e-01
   3.3300000e-01  -2.4162759e-01   0.0000000e+00  -2.4162759e-01
   3.3400000e-01  -2.3921306e-01   0.0000000e+00  -2.3921306e-01
   3.3500000e-01  -2.3679906e-01   0.0000000e+00  -2.3679906e-01
   3.3600000e-01  -2.3438559e-01   0.0000000e+00  -2.3438559e-01
   3.3700000e-01  -2.3197265e-01   0.0000000e+00  -2.3197265e-01
   3.3800000e-01  -2.2956026e-01   0.0000000e+00  -2.2956026e-01
   3.3900000e-01  -2.2714842e-01   0.0000000e+00  -2.2714842e-01
   3.4000000e-01  -2.2473714e-01   0.0000000e+00  -2.2473714e-01
   3.4100000e-01  -2.2232642e-01   0.0000000e+00  -2.2232642e-01
   3.4200000e-01  -2.1991628e-01   0.0000000e+00  -2.1991628e-01
   3.4300000e-01  -2.1750671e-01   0.0000000e+00  -2.1750671e-01
   3.4400000e-01  -2.1509773e-01   0.0000000e+00  -2.1509773e-01
   3.4500000e-01  -2.1268934e-01   0.0000000e+00  -2.1268934e-01
   3.4600000e-01  -2.1028154e-01   0.0000000e+00  -2.1028154e-01
   3.4700000e-01  -2.0787436e-01   0.0000000e+00  -2.0787436e-01
   3.4800000e-01  -2.0546778e-01   0.0000000e+00  -2.0546778e-01
   3.4900000e-01  -2.0306182e-01   0.0000000e+00  -2.0306182e-01
   3.5000000e-01  -2.0065649e-01   0.0000000e+00  -2.0065649e-01
   3.5100000e-01  -1.9825179e-01   0.0000000e+00  -1.9825179e-01
   3.5200000e-01  -1.9584773e-01   0.0000000e+00  -1.9584773e-01
   3.5300000e-01  -1.9344431e-01   0.0000000e+00  -1.9344431e-01
   3.5400000e-01  -1.9104155e-01   0.0000000e+00  -1.9104155e-01
   3.5500000e-01  -1.8863944e-01   0.0000000e+00  -1.8863944e-01
   3.5600000e-01  -1.8623800e-01   0.0000000e+00  -1.8623800e-01
   3.5700000e-01  -1.8383724e-01   0.0000000e+00  -1.8383724e-01
   3.5800000e-01  -1.8143715e-01   0.0000000e+00  -1.8143715e-01
   3.5900000e-01  -1.7903775e-01   0.0000000e+00  -1.7903775e-01
   3.6000000e-01  -1.7663904e-01   0.0000000e+00  -1.7663904e-01
   3.6100000e-01  -1.7424103e-01   0.0000000e+00  -1.7424103e-01
   3.6200000e-01  -1.7184373e-01   0.0000000e+00  -1.7184373e-01
   3.6300000e-01  -1.6944714e-01   0.0000000e+00  -1.6944714e-01
   3.6400000e-01  -1.6705127e-01   0.0000000e+00  -1.6705127e-01
   3.6500000e-01  -1.6465613e-01   0.0000000e+00  -1.6465613e-01
   3.6600000e-01  -1.6226172e-01   0.0000000e+00  -1.6226172e-01
   3.6700000e-01  -1.5986805e-01   0.0000000e+00  -1.5986805e-01
   3.6800000e-01  -1.5747512e-01   0.0000000e+00  -1.5747512e-01
   3.6900000e-01  -1.5508295e-01   0.0000000e+00  -1.5508295e-01
   3.7000000e-01  -1.5269154e-01   0.0000000e+00  -1.5269154e-01
   3.7100000e-01  -1.5030089e-01   0.0000000e+00  -1.5030089e-01
   3.7200000e-01  -1.4791102e-01   0.0000000e+00  -1.4791102e-01
   3.7300000e-01  -1.4552193e-01   0.0000000e+00  -1.4552193e-01
   3.7400000e-01  -1.4313362e-01   0.0000000e+00  -1.4313362e-01
   3.7500000e-01  -1.4074611e-01   0.0000000e+00  -1.4074611e-01
   3.7600000e-01  -1.3835940e-01   0.0000000e+00  -1.3835940e-01
   3.7700000e-01  -1.3597349e-01   0.0000000e+00  -1.3597349e-01
   3.7800000e-01  -1.3358840e-01   0.0000000e+00  -1.3358840e-01
   3.7900000e-01  -1.3120413e-01   0.0000000e+00  -1.3120413e-01
   3.8000000e-01  -1.2882068e-01   0.0000000e+00  -1.2882068e-01
   3.8100000e-01  -1.2643807e-01   0.0000000e+00  -1.2643807e-01
   3.8200000e-01  -1.2405630e-01   0.0000000e+00  -1.2405630e-01
   3.8300000e-01  -1.2167537e-01   0.0000000e+00  -1.2167537e-01
   3.8400000e-01  -1.1929530e-01   0.0000000e+00  -1.1929530e-01
   3.8500000e-01  -1.1691608e-01   0.0000000e+00  -1.1691608e-01
   3.8600000e-01  -1.1453774e-01   0.0000000e+00  -1.1453774e-01
   3.8700000e-01  -1.1216026e-01   0.0000000e+00  -1.1216026e-01
   3.8800000e-01  -1.0978367e-01   0.0000000e+00  -1.0978367e-01
   3.8900000e-01  -1.0740796e-01   0.0000000e+00  -1.0740796e-01
   3.9000000e-01  -1.0503315e-01   0.0000000e+00  -1.0503315e-01
   3.9100000e-01  -1.0265923e-01   0.0000000e+00  -1.0265923e-01
   3.9200000e-01  -1.0028622e-01   0.0000000e+00  -1.0028622e-01
   3.9300000e-01  -9.7914125e-02   0.0000000e+00  -9.7914125e-02
   3.9400000e-01  -9.5542948e-02   0.0000000e+00  -9.5542948e-02
   3.9500000e-01  -9.3172698e-02   0.0000000e+00  -9.3172698e-02
   3.9600000e-01  -9.0803380e-02   0.0000000e+00  -9.0803380e-02
   3.9700000e-01  -8.8435001e-02   0.0000000e+00  -8.8435001e-02
   3.9800000e-01  -8.6067568e-02   0.0000000e+00  -8.6067568e-02
   3.9900000e-01  -8.3701088e-02   0.0000000e+00  -8.3701088e-02
   4.0000000e-01  -8.1335567e-02   0.0000000e+00  -8.1335567e-02
   4.0100000e-01  -7.8971011e-02   0.0000000e+00  -7.8971011e-02
   4.0200000e-01  -7.6607428e-02   0.0000000e+00  -7.6607428e-02
   4.0300000e-01  -7.4244823e-02   0.0000000e+00  -7.4244823e-02
   4.0400000e-01  -7.1883204e-02   0.0000000e+00  -7.1883204e-02
   4.0500000e-01  -6.9522576e-02   0.0000000e+00  -6.9522576e-02
   4.0600000e-01  -6.7162947e-02   0.0000000e+00  -6.7162947e-02
   4.0700000e-01  -6.4804323e-02   0.0000000e+00  -6.4804323e-02
   4.0800000e-01  -6.2446711e-02   0.0000000e+00  -6.2446711e-02
   4.0900000e-01  -6.0090117e-02   0.0000000e+00  -6.0090117e-02
   4.1000000e-01  -5.7734548e-02   0.0000000e+00  -5.7734548e-02
   4.1100000e-01  -5.5380009e-02   0.0000000e+00  -5.5380009e-02
   4.1200000e-01  -5.3026509e-02   0.0000000e+00  -5.3026509e-02
   4.1300000e-01  -5.0674053e-02   0.0000000e+00  -5.0674053e-02
   4.1400000e-01  -4.8322648e-02   0.0000000e+00  -4.8322648e-02
   4.1500000e-01  -4.5972300e-02   0.0000000e+00  -4.5972300e-02
   4.1600000e-01  -4.3623016e-02   0.0000000e+00  -4.3623016e-02
   4.1700000e-01  -4.1274803e-02   0.0000000e+00  -4.1274803e-02
   4.1800000e-01  -3.8927666e-02   0.0000000e+00  -3.8927666e-02
   4.1900000e-01  -3.6581613e-02   0.0000000e+00  -3.6581613e-02
   4.2000000e-01  -3.4236650e-02   0.0000000e+00  -3.4236650e-02
   4.2100000e-01  -3.1892783e-02   0.0000000e+00  -3.1892783e-02
   4.2200000e-01  -2.9550019e-02   0.0000000e+00  -2.9550019e-02
   4.2300000e-01  -2.7208365e-02   0.0000000e+00  -2.7208365e-02
   4.2400000e-01  -2.4867826e-02   0.0000000e+00  -2.4867826e-02
   4.2500000e-01  -2.2528410e-02   0.0000000e+00  -2.2528410e-02
   4.2600000e-01  -2.0190123e-02   0.0000000e+00  -2.0190123e-02
   4.2700000e-01  -1.7852972e-02   0.0000000e+00  -1.7852972e-02
   4.2800000e-01  -1.5516962e-02   0.0000000e+00  -1.5516962e-02
   4.2900000e-01  -1.3182100e-02   0.0000000e+00  -1.3182100e-02
   4.3000000e-01  -1.0848393e-02   0.0000000e+00  -1.0848393e-02
   4.3100000e-01  -8.5158475e-03   0.0000000e+00  -8.5158475e-03
   4.3200000e-01  -6.1844695e-03   0.0000000e+00  -6.1844695e-03
   4.3300000e-01  -3.8542656e-03   0.0000000e+00  -3.8542656e-03
   4.3400000e-01  -1.5252423e-03   0.0000000e+00  -1.5252423e-03
   4.3500000e-01   8.0259395e-04   0.0000000e+00   8.0259395e-04
   4.3600000e-01   3.1292368e-03   0.0000000e+00   3.1292368e-03
   4.3700000e-01   5.4546798e-03   0.0000000e+00   5.4546798e-03
   4.3800000e-01   7.7789166e-03   0.0000000e+00   7.7789166e-03
   4.3900000e-01   1.0101941e-02   0.0000000e+00   1.0101941e-02
   4.4000000e-01   1.2423746e-02   0.0000000e+00   1.2423746e-02
   4.4100000e-01   1.4744325e-02   0.0000000e+00   1.4744325e-02
   4.4200000e-01   1.7063672e-02   0.0000000e+00   1.7063672e-02
   4.4300000e-01   1.9381781e-02   0.0000000e+00   1.9381781e-02
   4.4400000e-01   2.1698646e-02   0.0000000e+00   2.1698646e-02
   4.4500000e-01   2.4014259e-02   0.0000000e+00   2.4014259e-02
   4.4600000e-01   2.6328615e-02   0.0000000e+00   2.6328615e-02
   4.4700000e-01   2.8641707e-02   0.0000000e+00   2.8641707e-02
   4.4800000e-01   3.0953529e-02   0.0000000e+00   3.0953529e-02
   4.4900000e-01   3.3264074e-02   0.0000000e+00   3.3264074e-02
   4.5000000e-01   3.5573336e-02   0.0000000e+00   3.5573336e-02
   4.5100000e-01   3.7881308e-02   0.0000000e+00   3.7881308e-02
   4.5200000e-01   4.0187985e-02   0.0000000e+00   4.0187985e-02
   4.5300000e-01   4.2493360e-02   0.0000000e+00   4.2493360e-02
   4.5400000e-01   4.4797427e-02   0.0000000e+00   4.4797427e-02
   4.5500000e-01   4.7100179e-02   0.0000000e+00   4.7100179e-02
   4.5600000e-01   4.9401609e-02   0.0000000e+00   4.9401609e-02
   4.5700000e-01   5.1701713e-02   0.0000000e+00   5.1701713e-02
   4.5800000e-01   5.4000482e-02   0.0000000e+00   5.4000482e-02
   4.5900000e-01   5.6297912e-02   0.0000000e+00   5.6297912e-02
   4.6000000e-01   5.8593995e-02   0.0000000e+00   5.8593995e-02
   4.6100000e-01   6.0888726e-02   0.0000000e+00   6.0888726e-02
   4.6200000e-01   6.3182097e-02   0.0000000e+00   6.3182097e-02
   4.6300000e-01   6.5474103e-02   0.0000000e+00   6.5474103e-02
   4.6400000e-01   6.7764738e-02   0.0000000e+00   6.7764738e-02
   4.6500000e-01   7.0053995e-02   0.0000000e+00   7.0053995e-02
   4.6600000e-01   7.2341868e-02   0.0000000e+00   7.2341868e-02
   4.6700000e-01   7.4628350e-02   0.0000000e+00   7.4628350e-02
   4.6800000e-01   7.6913435e-02   0.0000000e+00   7.6913435e-02
   4.6900000e-01   7.9197118e-02   0.0000000e+00   7.9197118e-02
   4.7000000e-01   8.1479392e-02   0.0000000e+00   8.1479392e-02
   4.7100000e-01   8.3760250e-02   0.0000000e+00   8.3760250e-02
   4.7200000e-01   8.6039686e-02   0.0000000e+00   8.6039686e-02
   4.7300000e-01   8.8317694e-02   0.0000000e+00   8.8317694e-02
   4.7400000e-01   9.0594268e-02   0.0000000e+00   9.0594268e-02
   4.7500000e-01   9.2869402e-02   0.0000000e+00   9.2869402e-02
   4.7600000e-01   9.5143089e-02   0.0000000e+00   9.5143089e-02
   4.7700000e-01   9.7415323e-02   0.0000000e+00   9.7415323e-02
   4.7800000e-01   9.9686098e-02   0.0000000e+00   9.9686098e-02
   4.7900000e-01   1.0195541e-01   0.0000000e+00   1.0195541e-01
   4.8000000e-01   1.0422325e-01   0.0000000e+00   1.0422325e-01
   4.8100000e-01   1.0648961e-01   0.0000000e+00   1.0648961e-01
   4.8200000e-01   1.0875448e-01   0.0000000e+00   1.0875448e-01
   4.8300000e-01   1.1101787e-01   0.0000000e+00   1.1101787e-01
   4.8400000e-01   1.1327976e-01   0.0000000e+00   1.1327976e-01
   4.8500000e-01   1.1554015e-01   0.0000000e+00   1.1554015e-01
   4.8600000e-01   1.1779903e-01   0.0000000e+00   1.1779903e-01
   4.8700000e-01   1.2005639e-01   0.0000000e+00   1.2005639e-01
   4.8800000e-01   1.2231223e-01   0.0000000e+00   1.2231223e-01
   4.8900000e-01   1.2456655e-01   0.0000000e+00   1.2456655e-01
   4.9000000e-01   1.2681933e-01   0.0000000e+00   1.2681933e-01
   4.9100000e-01   1.2907058e-01   0.0000000e+00   1.2907058e-01
   4.9200000e-01   1.3132028e-01   0.0000000e+00   1.3132028e-01
   4.9300000e-01   1.3356842e-01   0.0000000e+00   1.3356842e-01
   4.9400000e-01   1.3581501e-01   0.0000000e+00   1.3581501e-01
   4.9500000e-01   1.3806004e-01   0.0000000e+00   1.3806004e-01
   4.9600000e-01   1.4030349e-01   0.0000000e+00   1.4030349e-01
   4.9700000e-01   1.4254537e-01   0.0000000e+00   1.4254537e-01
   4.9800000e-01   1.4478567e-01   0.0000000e+00   1.4478567e-01
   4.9900000e-01   1.4702437e-01   0.0000000e+00   1.4702437e-01
   5.0000000e-01   1.4926149e-01   0.0000000e+00   1.4926149e-01
   5.0100000e-01   1.5149700e-01   0.0000000e+00   1.5149700e-01
   5.0200000e-01   1.5373091e-01   0.0000000e+00   1.5373091e-01
   5.0300000e-01   1.5596320e-01   0.0000000e+00   1.5596320e-01
   5.0400000e-01   1.5819388e-01   0.0000000e+00   1.5819388e-01
   5.0500000e-01   1.6042293e-01   0.0000000e+00   1.6042293e-01
   5.0600000e-01   1.6265035e-01   0.0000000e+00   1.6265035e-01
   5.0700000e-01   1.6487613e-01   0.0000000e+00   1.6487613e-01
   5.0800000e-01   1.6710027e-01   0.0000000e+00   1.6710027e-01
   5.0900000e-01   1.6932276e-01   0.0000000e+00   1.6932276e-01
   5.1000000e-01   1.7154360e-01   0.0000000e+00   1.7154360e-01
   5.1100000e-01   1.7376277e-01   0.0000000e+00   1.7376277e-01
   5.1200000e-01   1.7598028e-01   0.0000000e+00   1.7598028e-01
   5.1300000e-01   1.7819612e-01   0.0000000e+00   1.7819612e-01
   5.1400000e-01   1.8041027e-01   0.0000000e+00   1.8041027e-01
   5.1500000e-01   1.8262274e-01   0.0000000e+00   1.8262274e-01
   5.1600000e-01   1.8483352e-01   0.0000000e+00   1.8483352e-01
   5.1700000e-01   1.8704261e-01   0.0000000e+00   1.8704261e-01
   5.1800000e-01   1.8924999e-01   0.0000000e+00   1.8924999e-01
   5.1900000e-01   1.9145566e-01   0.0000000e+00   1.9145566e-01
   5.2000000e-01   1.9365962e-01   0.0000000e+00   1.9365962e-01
   5.2100000e-01   1.9586185e-01   0.0000000e+00   1.9586185e-01
   5.2200000e-01   1.9806236e-01   0.0000000e+00   1.9806236e-01
   5.2300000e-01   2.0026114e-01   0.0000000e+00   2.0026114e-01
   5.2400000e-01   2.0245818e-01   0.0000000e+00   2.0245818e-01
   5.2500000e-01   2.0465347e-01   0.0000000e+00   2.0465347e-01
   5.2600000e-01   2.0684701e-01   0.0000000e+00   2.0684701e-01
   5.2700000e-01   2.0903880e-01   0.0000000e+00   2.0903880e-01
   5.2800000e-01   2.1122882e-01   0.0000000e+00   2.1122882e-01
   5.2900000e-01   2.1341708e-01   0.0000000e+00   2.1341708e-01
   5.3000000e-01   2.1560356e-01   0.0000000e+00   2.1560356e-01
   5.3100000e-01   2.1778826e-01   0.0000000e+00   2.1778826e-01
   5.3200000e-01   2.1997118e-01   0.0000000e+00   2.1997118e-01
   5.3300000e-01   2.2215230e-01   0.0000000e+00   2.2215230e-01
   5.3400000e-01   2.2433163e-01   0.0000000e+00   2.2433163e-01
   5.3500000e-01   2.2650915e-01   0.0000000e+00   2.2650915e-01
   5.3600000e-01   2.2868486e-01   0.0000000e+00   2.2868486e-01
   5.3700000e-01   2.3085876e-01   0.0000000e+00   2.3085876e-01
   5.3800000e-01   2.3303084e-01   0.0000000e+00   2.3303084e-01
   5.3900000e-01   2.3520109e-01   0.0000000e+00   2.3520109e-01
   5.4000000e-01   2.3736951e-01   0.0000000e+00   2.3736951e-01
   5.4100000e-01   2.3953609e-01   0.0000000e+00   2.3953609e-01
   5.4200000e-01   2.4170082e-01   0.0000000e+00   2.4170082e-01
   5.4300000e-01   2.4386371e-01   0.0000000e+00   2.4386371e-01
   5.4400000e-01   2.4602474e-01   0.0000000e+00   2.4602474e-01
   5.4500000e-01   2.4818390e-01   0.0000000e+00   2.4818390e-01
   5.4600000e-01   2.5034120e-01   0.0000000e+00   2.5034120e-01
   5.4700000e-01   2.5249663e-01   0.0000000e+00   2.5249663e-01
   5.4800000e-01   2.5465018e-01   0.0000000e+00   2.5465018e-01
   5.4900000e-01   2.5680184e-01   0.0000000e+00   2.5680184e-01
   5.5000000e-01   2.5895161e-01   0.0000000e+00   2.5895161e-01
   5.5100000e-01   2.6109949e-01   0.0000000e+00   2.6109949e-01
   5.5200000e-01   2.6324546e-01   0.0000000e+00   2.6324546e-01
   5.5300000e-01   2.6538952e-01   0.0000000e+00   2.6538952e-01
   5.5400000e-01   2.6753168e-01   0.0000000e+00   2.6753168e-01
   5.5500000e-01   2.6967191e-01   0.0000000e+00   2.6967191e-01
   5.5600000e-01   2.7181022e-01   0.0000000e+00   2.7181022e-01
   5.5700000e-01   2.7394659e-01   0.0000000e+00   2.7394659e-01
   5.5800000e-01   2.7608103e-01   0.0000000e+00   2.7608103e-01
   5.5900000e-01   2.7821353e-01   0.0000000e+00   2.7821353e-01
   5.6000000e-01   2.8034408e-01   0.0000000e+00   2.8034408e-01
   5.6100000e-01   2.8247268e-01   0.0000000e+00   2.8247268e-01
   5.6200000e-01   2.8459932e-01   0.0000000e+00   2.8459932e-01
   5.6300000e-01   2.8672399e-01   0.0000000e+00   2.8672399e-01
   5.6400000e-01   2.8884669e-01   0.0000000e+00   2.8884669e-01
   5.6500000e-01   2.9096742e-01   0.0000000e+00   2.9096742e-01
   5.6600000e-01   2.9308617e-01   0.0000000e+00   2.9308617e-01
   5.6700000e-01   2.9520292e-01   0.0000000e+00   2.9520292e-01
   5.6800000e-01   2.9731769e-01   0.0000000e+00   2.9731769e-01
   5.6900000e-01   2.9943045e-01   0.0000000e+00   2.9943045e-01
   5.7000000e-01   3.0154121e-01   0.0000000e+00   3.0154121e-01
   5.7100000e-01   3.0364997e-01   0.0000000e+00   3.0364997e-01
   5.7200000e-01   3.0575670e-01   0.0000000e+00   3.0575670e-01
   5.7300000e-01   3.0786142e-01   0.0000000e+00   3.0786142e-01
   5.7400000e-01   3.0996411e-01   0.0000000e+00   3.0996411e-01
   5.7500000e-01   3.1206476e-01   0.0000000e+00   3.1206476e-01
   5.7600000e-01   3.1416338e-01   0.0000000e+00   3.1416338e-01
   5.7700000e-01   3.1625996e-01   0.0000000e+00   3.1625996e-01
   5.7800000e-01   3.1835448e-01   0.0000000e+00   3.1835448e-01
   5.7900000e-01   3.2044695e-01   0.0000000e+00   3.2044695e-01
   5.8000000e-01   3.2253737e-01   0.0000000e+00   3.2253737e-01
   5.8100000e-01   3.2462571e-01   0.0000000e+00   3.2462571e-01
   5.8200000e-01   3.2671199e-01   0.0000000e+00   3.2671199e-01
   5.8300000e-01   3.2879619e-01   0.0000000e+00   3.2879619e-01
   5.8400000e-01   3.3087830e-01   0.0000000e+00   3.3087830e-01
   5.8500000e-01   3.3295833e-01   0.0000000e+00   3.3295833e-01
   5.8600000e-01   3.3503627e-01   0.0000000e+00   3.3503627e-01
   5.8700000e-01   3.3711211e-01   0.0000000e+00   3.3711211e-01
   5.8800000e-01   3.3918584e-01   0.0000000e+00   3.3918584e-01
   5.8900000e-01   3.4125747e-01   0.0000000e+00   3.4125747e-01
   5.9000000e-01   3.4332698e-01   0.0000000e+00   3.4332698e-01
   5.9100000e-01   3.4539436e-01   0.0000000e+00   3.4539436e-01
   5.9200000e-01   3.4745963e-01   0.0000000e+00   3.4745963e-01
   5.9300000e-01   3.4952276e-01   0.0000000e+00   3.4952276e-01
   5.9400000e-01   3.5158376e-01   0.0000000e+00   3.5158376e-01
   5.9500000e-01   3.5364261e-01   0.0000000e+00   3.5364261e-01
   5.9600000e-01   3.5569931e-01   0.0000000e+00   3.5569931e-01
   5.9700000e-01   3.5775387e-01   0.0000000e+00   3.5775387e-01
   5.9800000e-01   3.5980626e-01   0.0000000e+00   3.5980626e-01
   5.9900000e-01   3.6185649e-01   0.0000000e+00   3.6185649e-01
   6.0000000e-01   3.6390455e-01   0.0000000e+00   3.6390455e-01
   6.0100000e-01   3.6595044e-01   0.0000000e+00   3.6595044e-01
   6.0200000e-01   3.6799415e-01   0.0000000e+00   3.6799415e-01
   6.0300000e-01   3.7003567e-01   0.0000000e+00   3.7003567e-01
   6.0400000e-01   3.7207500e-01   0.0000000e+00   3.7207500e-01
   6.0500000e-01   3.7411214e-01   0.0000000e+00   3.7411214e-01
   6.0600000e-01   3.7614708e-01   0.0000000e+00   3.7614708e-01
   6.0700000e-01   3.7817980e-01   0.0000000e+00   3.7817980e-01
   6.0800000e-01   3.8021032e-01   0.0000000e+00   3.8021032e-01
   6.0900000e-01   3.8223862e-01   0.0000000e+00   3.8223862e-01
   6.1000000e-01   3.8426470e-01   0.0000000e+00   3.8426470e-01
   6.1100000e-01   3.8628855e-01   0.0000000e+00   3.8628855e-01
   6.1200000e-01   3.8831016e-01   0.0000000e+00   3.8831016e-01
   6.1300000e-01   3.9032954e-01   0.0000000e+00   3.9032954e-01
   6.1400000e-01   3.9234668e-01   0.0000000e+00   3.9234668e-01
   6.1500000e-01   3.9436156e-01   0.0000000e+00   3.9436156e-01
   6.1600000e-01   3.9637420e-01   0.0000000e+00   3.9637420e-01
   6.1700000e-01   3.9838457e-01   0.0000000e+00   3.9838457e-01
   6.1800000e-01   4.0039268e-01   0.0000000e+00   4.0039268e-01
   6.1900000e-01   4.0239851e-01   0.0000000e+00   4.0239851e-01
   6.2000000e-01   4.0440208e-01   0.0000000e+00   4.0440208e-01
   6.2100000e-01   4.0640336e-01   0.0000000e+00   4.0640336e-01
   6.2200000e-01   4.0840236e-01   0.0000000e+00   4.0840236e-01
   6.2300000e-01   4.1039907e-01   0.0000000e+00   4.1039907e-01
   6.2400000e-01   4.1239348e-01   0.0000000e+00   4.1239348e-01
   6.2500000e-01   4.1438559e-01   0.0000000e+00   4.1438559e-01
   6.2600000e-01   4.1637539e-01   0.0000000e+00   4.1637539e-01
   6.2700000e-01   4.1836289e-01   0.0000000e+00   4.1836289e-01
   6.2800000e-01   4.2034807e-01   0.0000000e+00   4.2034807e-01
   6.2900000e-01   4.2233092e-01   0.0000000e+00   4.2233092e-01
   6.3000000e-01   4.2431145e-01   0.0000000e+00   4.2431145e-01
   6.3100000e-01   4.2628965e-01   0.0000000e+00   4.2628965e-01
   6.3200000e-01   4.2826551e-01   0.0000000e+00   4.2826551e-01
   6.3300000e-01   4.3023903e-01   0.0000000e+00   4.3023903e-01
   6.3400000e-01   4.3221020e-01   0.0000000e+00   4.3221020e-01
   6.3500000e-01   4.3417902e-01   0.0000000e+00   4.3417902e-01
   6.3600000e-01   4.3614548e-01   0.0000000e+00   4.3614548e-01
   6.3700000e-01   4.3810958e-01   0.0000000e+00   4.3810958e-01
   6.3800000e-01   4.4007131e-01   0.0000000e+00   4.4007131e-01
   6.3900000e-01   4.4203067e-01   0.0000000e+00   4.4203067e-01
   6.4000000e-01   4.4398766e-01   0.0000000e+00   4.4398766e-01
   6.4100000e-01   4.4594226e-01   0.0000000e+00   4.4594226e-01
   6.4200000e-01   4.4789447e-01   0.0000000e+00   4.4789447e-01
   6.4300000e-01   4.4984429e-01   0.0000000e+00   4.4984429e-01
   6.4400000e-01   4.5179171e-01   0.0000000e+00   4.5179171e-01
   6.4500000e-01   4.5373673e-01   0.0000000e+00   4.5373673e-01
   6.4600000e-01   4.5567935e-01   0.0000000e+00   4.5567935e-01
   6.4700000e-01   4.5761955e-01   0.0000000e+00   4.5761955e-01
   6.4800000e-01   4.5955733e-01   0.0000000e+00   4.5955733e-01
   6.4900000e-01   4.6149269e-01   0.0000000e+00   4.6149269e-01
   6.5000000e-01   4.6342562e-01   0.0000000e+00   4.6342562e-01
   6.5100000e-01   4.6535612e-01   0.0000000e+00   4.6535612e-01
   6.5200000e-01   4.6728419e-01   0.0000000e+00   4.6728419e-01
   6.5300000e-01   4.6920981e-01   0.0000000e+00   4.6920981e-01
   6.5400000e-01   4.7113298e-01   0.0000000e+00   4.7113298e-01
   6.5500000e-01   4.7305370e-01   0.0000000e+00   4.7305370e-01
   6.5600000e-01   4.7497197e-01   0.0000000e+00   4.7497197e-01
   6.5700000e-01   4.7688777e-01   0.0000000e+00   4.7688777e-01
   6.5800000e-01   4.7880111e-01   0.0000000e+00   4.7880111e-01
   6.5900000e-01   4.8071197e-01   0.0000000e+00   4.8071197e-01
   6.6000000e-01   4.8262036e-01   0.0000000e+00   4.8262036e-01
   6.6100000e-01   4.8452627e-01   0.0000000e+00   4.8452627e-01
   6.6200000e-01   4.8642969e-01   0.0000000e+00   4.8642969e-01
   6.6300000e-01   4.8833062e-01   0.0000000e+00   4.8833062e-01
   6.6400000e-01   4.9022905e-01   0.0000000e+00   4.9022905e-01
   6.6500000e-01   4.9212499e-01   0.0000000e+00   4.9212499e-01
   6.6600000e-01   4.9401841e-01   0.0000000e+00   4.9401841e-01
   6.6700000e-01   4.9590933e-01   0.0000000e+00   4.9590933e-01
   6.6800000e-01   4.9779773e-01   0.0000000e+00   4.9779773e-01
   6.6900000e-01   5.0054178e-01   8.5816306e-04   4.9968362e-01
   6.7000000e-01   5.0491453e-01   3.3475507e-03   5.0156698e-01
   6.7100000e-01   5.1184762e-01   8.3998173e-03   5.0344780e-01
   6.7200000e-01   5.2105713e-01   1.5731026e-02   5.0532610e-01
   6.7300000e-01   5.3029317e-01   2.3091315e-02   5.0720186e-01
   6.7400000e-01   5.3430910e-01   2.5234029e-02   5.0907507e-01
   6.7500000e-01   5.2530412e-01   1.4358386e-02   5.1094573e-01
   6.7600000e-01   4.9397198e-01  -1.8841860e-02   5.1281384e-01
   6.7700000e-01   4.3231995e-01  -8.2359447e-02   5.1467940e-01
   6.7800000e-01   3.3709305e-01  -1.7944933e-01   5.1654239e-01
   6.7900000e-01   2.1175210e-01  -3.0665071e-01   5.1840281e-01
   6.8000000e-01   6.7966994e-02  -4.5229367e-01   5.2026066e-01
   6.8100000e-01  -7.6295944e-02  -5.9841188e-01   5.2211594e-01
   6.8200000e-01  -2.0030783e-01  -7.2427646e-01   5.2396863e-01
   6.8300000e-01  -2.8519082e-01  -8.1100957e-01   5.2581874e-01
   6.8400000e-01  -3.1812289e-01  -8.4578915e-01   5.2766626e-01
   6.8500000e-01  -2.9477694e-01  -8.2428812e-01   5.2951118e-01
   6.8600000e-01  -2.1975315e-01  -7.5110665e-01   5.3135351e-01
   6.8700000e-01  -1.0369917e-01  -6.3689239e-01   5.3319323e-01
   6.8800000e-01   3.9623826e-02  -4.9540651e-01   5.3503034e-01
   6.8900000e-01   1.9715802e-01  -3.3970681e-01   5.3686483e-01
   6.9000000e-01   3.5917257e-01  -1.7952415e-01   5.3869671e-01
   6.9100000e-01   5.1979145e-01  -2.0734520e-02   5.4052597e-01
   6.9200000e-01   6.7682947e-01   1.3447687e-01   5.4235260e-01
   6.9300000e-01   8.3026060e-01   2.8608400e-01   5.4417659e-01
   6.9400000e-01   9.8116911e-01   4.3517116e-01   5.4599795e-01
   6.9500000e-01   1.1302917e+00   5.8247503e-01   5.4781667e-01
   6.9600000e-01   1.2782851e+00   7.2865232e-01   5.4963275e-01
   6.9700000e-01   1.4248665e+00   8.7342030e-01   5.5144617e-01
   6.9800000e-01   1.5697559e+00   1.0164990e+00   5.5325694e-01
   6.9900000e-01   1.7126766e+00   1.1576116e+00   5.5506505e-01
   7.0000000e-01   1.8533558e+00   1.2964853e+00   5.5687050e-01
   7.0100000e-01   1.9915246e+00   1.4328513e+00   5.5867328e-01
   7.0200000e-01   2.1269195e+00   1.5664461e+00   5.6047339e-01
   7.0300000e-01   2.2592820e+00   1.6970112e+00   5.6227082e-01
   7.0400000e-01   2.3883595e+00   1.8242940e+00   5.6406557e-01
   7.0500000e-01   2.5139060e+00   1.9480484e+00   5.6585763e-01
   7.0600000e-01   2.6356820e+00   2.0680350e+00   5.6764700e-01
   7.0700000e-01   2.7534554e+00   2.1840217e+00   5.6943368e-01
   7.0800000e-01   2.8670020e+00   2.2957843e+00   5.7121766e-01
   7.0900000e-01   2.9761055e+00   2.4031065e+00   5.7299894e-01
   7.1000000e-01   3.0805583e+00   2.5057808e+00   5.7477751e-01
   7.1100000e-01   3.1801620e+00   2.6036086e+00   5.7655337e-01
   7.1200000e-01   3.2747272e+00   2.6964007e+00   5.7832651e-01
   7.1300000e-01   3.3640745e+00   2.7839776e+00   5.8009693e-01
   7.1400000e-01   3.4480345e+00   2.8661699e+00   5.8186462e-01
   7.1500000e-01   3.5264483e+00   2.9428187e+00   5.8362958e-01
   7.1600000e-01   3.5991674e+00   3.0137756e+00   5.8539182e-01
   7.1700000e-01   3.6660549e+00   3.0789036e+00   5.8715131e-01
   7.1800000e-01   3.7269846e+00   3.1380765e+00   5.8890806e-01
   7.1900000e-01   3.7818420e+00   3.1911800e+00   5.9066206e-01
   7.2000000e-01   3.8305246e+00   3.2381113e+00   5.9241331e-01
   7.2100000e-01   3.8729415e+00   3.2787797e+00   5.9416181e-01
   7.2200000e-01   3.9090140e+00   3.3131065e+00   5.9590755e-01
   7.2300000e-01   3.9386758e+00   3.3410253e+00   5.9765052e-01
   7.2400000e-01   3.9618729e+00   3.3624822e+00   5.9939073e-01
   7.2500000e-01   3.9785637e+00   3.3774355e+00   6.0112816e-01
   7.2600000e-01   3.9887193e+00   3.3858565e+00   6.0286281e-01
   7.2700000e-01   3.9923235e+00   3.3877288e+00   6.0459469e-01
   7.2800000e-01   3.9893725e+00   3.3830487e+00   6.0632378e-01
   7.2900000e-01   3.9798755e+00   3.3718254e+00   6.0805008e-01
   7.3000000e-01   3.9638542e+00   3.3540806e+00   6.0977359e-01
   7.3100000e-01   3.9413428e+00   3.3298485e+00   6.1149430e-01
   7.3200000e-01   3.9123883e+00   3.2991761e+00   6.1321221e-01
   7.3300000e-01   3.8770499e+00   3.2621226e+00   6.1492731e-01
   7.3400000e-01   3.8353994e+00   3.2187598e+00   6.1663960e-01
   7.3500000e-01   3.7875205e+00   3.1691714e+00   6.1834908e-01
   7.3600000e-01   3.7335092e+00   3.1134535e+00   6.2005574e-01
   7.3700000e-01   3.6734733e+00   3.0517137e+00   6.2175957e-01
   7.3800000e-01   3.6075321e+00   2.9840715e+00   6.2346058e-01
   7.3900000e-01   3.5358165e+00   2.9106578e+00   6.2515876e-01
   7.4000000e-01   3.4584685e+00   2.8316144e+00   6.2685411e-01
   7.4100000e-01   3.3756409e+00   2.7470943e+00   6.2854661e-01
   7.4200000e-01   3.2874973e+00   2.6572610e+00   6.3023628e-01
   7.4300000e-01   3.1942113e+00   2.5622882e+00   6.3192309e-01
   7.4400000e-01   3.0959667e+00   2.4623596e+00   6.3360706e-01
   7.4500000e-01   2.9929567e+00   2.3576685e+00   6.3528817e-01
   7.4600000e-01   2.8853838e+00   2.2484173e+00   6.3696642e-01
   7.4700000e-01   2.7734593e+00   2.1348175e+00   6.3864180e-01
   7.4800000e-01   2.6574029e+00   2.0170885e+00   6.4031433e-01
   7.4900000e-01   2.5374423e+00   1.8954583e+00   6.4198397e-01
   7.5000000e-01   2.4138128e+00   1.7701620e+00   6.4365075e-01
   7.5100000e-01   2.2867567e+00   1.6414420e+00   6.4531464e-01
   7.5200000e-01   2.1565229e+00   1.5095472e+00   6.4697566e-01
   7.5300000e-01   2.0233666e+00   1.3747328e+00   6.4863378e-01
   7.5400000e-01   1.8875485e+00   1.2372595e+00   6.5028902e-01
   7.5500000e-01   1.7493344e+00   1.0973931e+00   6.5194135e-01
   7.5600000e-01   1.6089950e+00   9.5540422e-01   6.5359080e-01
   7.5700000e-01   1.4668048e+00   8.1156747e-01   6.5523733e-01
   7.5800000e-01   1.3230420e+00   6.6616105e-01   6.5688096e-01
   7.5900000e-01   1.1779879e+00   5.1946618e-01   6.5852169e-01
   7.6000000e-01   1.0310319e+00   3.7087246e-01   6.6015949e-01
   7.6100000e-01   8.8148312e-01   2.1968874e-01   6.6179438e-01
   7.6200000e-01   7.2831535e-01   6.4889003e-02   6.6342635e-01
   7.6300000e-01   5.7155070e-01  -9.3504689e-02   6.6505539e-01
   7.6400000e-01   4.1326190e-01  -2.5341959e-01   6.6668150e-01
   7.6500000e-01   2.5903867e-01  -4.0926600e-01   6.6830467e-01
   7.6600000e-01   1.1816263e-01  -5.5176228e-01   6.6992491e-01
   7.6700000e-01   3.1244803e-03  -6.6841773e-01   6.7154221e-01
   7.6800000e-01  -7.2853515e-02  -7.4601008e-01   6.7315657e-01
   7.6900000e-01  -9.9443721e-02  -7.7421169e-01   6.7476797e-01
   7.7000000e-01  -7.2021826e-02  -7.4839825e-01   6.7637642e-01
   7.7100000e-01   5.5618703e-03  -6.7242005e-01   6.7798192e-01
   7.7200000e-01   1.2134365e-01  -5.5824081e-01   6.7958445e-01
   7.7300000e-01   2.5752003e-01  -4.2366400e-01   6.8118403e-01
   7.7400000e-01   3.9441519e-01  -2.8836544e-01   6.8278063e-01
   7.7500000e-01   5.1486195e-01  -1.6951231e-01   6.8437426e-01
   7.7600000e-01   6.0758285e-01  -7.8382073e-02   6.8596492e-01
   7.7700000e-01   6.6904890e-01  -1.8503705e-02   6.8755260e-01
   7.7800000e-01   7.0211080e-01   1.2973503e-02   6.8913730e-01
   7.7900000e-01   7.1415738e-01   2.3438373e-02   6.9071901e-01
   7.8000000e-01   7.1388649e-01   2.1588755e-02   6.9229773e-01
   7.8100000e-01   7.0862987e-01   1.4756414e-02   6.9387346e-01
   7.8200000e-01   7.0334352e-01   7.8973332e-03   6.9544619e-01
   7.8300000e-01   7.0016885e-01   3.1529293e-03   6.9701592e-01
   7.8400000e-01   6.9939237e-01   8.0972638e-04   6.9858265e-01
   7.8500000e-01   7.0014637e-01   0.0000000e+00   7.0014637e-01
   7.8600000e-01   7.0170707e-01   0.0000000e+00   7.0170707e-01
   7.8700000e-01   7.0326477e-01   0.0000000e+00   7.0326477e-01
   7.8800000e-01   7.0481944e-01   0.0000000e+00   7.0481944e-01
   7.8900000e-01   7.0637109e-01   0.0000000e+00   7.0637109e-01
   7.9000000e-01   7.0791972e-01   0.0000000e+00   7.0791972e-01
   7.9100000e-01   7.0946531e-01   0.0000000e+00   7.0946531e-01
   7.9200000e-01   7.1100788e-01   0.0000000e+00   7.1100788e-01
   7.9300000e-01   7.1254740e-01   0.0000000e+00   7.1254740e-01
   7.9400000e-01   7.1408389e-01   0.0000000e+00   7.1408389e-01
   7.9500000e-01   7.1561733e-01   0.0000000e+00   7.1561733e-01
   7.9600000e-01   7.1714773e-01   0.0000000e+00   7.1714773e-01
   7.9700000e-01   7.1867508e-01   0.0000000e+00   7.1867508e-01
   7.9800000e-01   7.2019937e-01   0.0000000e+00   7.2019937e-01
   7.9900000e-01   7.2172061e-01   0.0000000e+00   7.2172061e-01
   8.0000000e-01   7.2323878e-01   0.0000000e+00   7.2323878e-01
   8.0100000e-01   7.2475389e-01   0.0000000e+00   7.2475389e-01
   8.0200000e-01   7.2626594e-01   0.0000000e+00   7.2626594e-01
   8.0300000e-01   7.2777491e-01   0.0000000e+00   7.2777491e-01
   8.0400000e-01   7.2928081e-01   0.0000000e+00   7.2928081e-01
   8.0500000e-01   7.3078363e-01   0.0000000e+00   7.3078363e-01
   8.0600000e-01   7.3228337e-01   0.0000000e+00   7.3228337e-01
   8.0700000e-01   7.3378002e-01   0.0000000e+00   7.3378002e-01
   8.0800000e-01   7.3527359e-01   0.0000000e+00   7.3527359e-01
   8.0900000e-01   7.3676406e-01   0.0000000e+00   7.3676406e-01
   8.1000000e-01   7.3825145e-01   0.0000000e+00   7.3825145e-01
   8.1100000e-01   7.3973573e-01   0.0000000e+00   7.3973573e-01
   8.1200000e-01   7.4121691e-01   0.0000000e+00   7.4121691e-01
   8.1300000e-01   7.4269499e-01   0.0000000e+00   7.4269499e-01
   8.1400000e-01   7.4416996e-01   0.0000000e+00   7.4416996e-01
   8.1500000e-01   7.4564182e-01   0.0000000e+00   7.4564182e-01
   8.1600000e-01   7.4711056e-01   0.0000000e+00   7.4711056e-01
   8.1700000e-01   7.4857619e-01   0.0000000e+00   7.4857619e-01
   8.1800000e-01   7.5003870e-01   0.0000000e+00   7.5003870e-01
   8.1900000e-01   7.5149808e-01   0.0000000e+00   7.5149808e-01
   8.2000000e-01   7.5295434e-01   0.0000000e+00   7.5295434e-01
   8.2100000e-01   7.5440746e-01   0.0000000e+00   7.5440746e-01
   8.2200000e-01   7.5585745e-01   0.0000000e+00   7.5585745e-01
   8.2300000e-01   7.5730431e-01   0.0000000e+00   7.5730431e-01
   8.2400000e-01   7.5874802e-01   0.0000000e+00   7.5874802e-01
   8.2500000e-01   7.6018859e-01   0.0000000e+00   7.6018859e-01
   8.2600000e-01   7.6162602e-01   0.0000000e+00   7.6162602e-01
   8.2700000e-01   7.6306029e-01   0.0000000e+00   7.6306029e-01
   8.2800000e-01   7.6449141e-01   0.0000000e+00   7.6449141e-01
   8.2900000e-01   7.6591938e-01   0.0000000e+00   7.6591938e-01
   8.3000000e-01   7.6734419e-01   0.0000000e+00   7.6734419e-01
   8.3100000e-01   7.6876584e-01   0.0000000e+00   7.6876584e-01
   8.3200000e-01   7.7018432e-01   0.0000000e+00   7.7018432e-01
   8.3300000e-01   7.7159963e-01   0.0000000e+00   7.7159963e-01
   8.3400000e-01   7.7301177e-01   0.0000000e+00   7.7301177e-01
   8.3500000e-01   7.7442074e-01   0.0000000e+00   7.7442074e-01
   8.3600000e-01   7.7582653e-01   0.0000000e+00   7.7582653e-01
   8.3700000e-01   7.7722914e-01   0.0000000e+00   7.7722914e-01
   8.3800000e-01   7.7862857e-01   0.0000000e+00   7.7862857e-01
   8.3900000e-01   7.8002481e-01   0.0000000e+00   7.8002481e-01
   8.4000000e-01   7.8141786e-01   0.0000000e+00   7.8141786e-01
   8.4100000e-01   7.8280772e-01   0.0000000e+00   7.8280772e-01
   8.4200000e-01   7.8419438e-01   0.0000000e+00   7.8419438e-01
   8.4300000e-01   7.8557785e-01   0.0000000e+00   7.8557785e-01
   8.4400000e-01   7.8695811e-01   0.0000000e+00   7.8695811e-01
   8.4500000e-01   7.8833517e-01   0.0000000e+00   7.8833517e-01
   8.4600000e-01   7.8970903e-01   0.0000000e+00   7.8970903e-01
   8.4700000e-01   7.9107967e-01   0.0000000e+00   7.9107967e-01
   8.4800000e-01   7.9244710e-01   0.0000000e+00   7.9244710e-01
   8.4900000e-01   7.9381131e-01   0.0000000e+00   7.9381131e-01
   8.5000000e-01   7.9517231e-01   0.0000000e+00   7.9517231e-01
   8.5100000e-01   7.9653009e-01   0.0000000e+00   7.9653009e-01
   8.5200000e-01   7.9788464e-01   0.0000000e+00   7.9788464e-01
   8.5300000e-01   7.9923596e-01   0.0000000e+00   7.9923596e-01
   8.5400000e-01   8.0058405e-01   0.0000000e+00   8.0058405e-01
   8.5500000e-01   8.0192891e-01   0.0000000e+00   8.0192891e-01
   8.5600000e-01   8.0327054e-01   0.0000000e+00   8.0327054e-01
   8.5700000e-01   8.0460892e-01   0.0000000e+00   8.0460892e-01
   8.5800000e-01   8.0594407e-01   0.0000000e+00   8.0594407e-01
   8.5900000e-01   8.0727597e-01   0.0000000e+00   8.0727597e-01
   8.6000000e-01   8.0860462e-01   0.0000000e+00   8.0860462e-01
   8.6100000e-01   8.0993003e-01   0.0000000e+00   8.0993003e-01
   8.6200000e-01   8.1125218e-01   0.0000000e+00   8.1125218e-01
   8.6300000e-01   8.1257108e-01   0.0000000e+00   8.1257108e-01
   8.6400000e-01   8.1388672e-01   0.0000000e+00   8.1388672e-01
   8.6500000e-01   8.1519910e-01   0.0000000e+00   8.1519910e-01
   8.6600000e-01   8.1650822e-01   0.0000000e+00   8.1650822e-01
   8.6700000e-01   8.1781407e-01   0.0000000e+00   8.1781407e-01
   8.6800000e-01   8.1911665e-01   0.0000000e+00   8.1911665e-01
   8.6900000e-01   8.2041596e-01   0.0000000e+00   8.2041596e-01
   8.7000000e-01   8.2171200e-01   0.0000000e+00   8.2171200e-01
   8.7100000e-01   8.2300476e-01   0.0000000e+00   8.2300476e-01
   8.7200000e-01   8.2429424e-01   0.0000000e+00   8.2429424e-01
   8.7300000e-01   8.2558044e-01   0.0000000e+00   8.2558044e-01
   8.7400000e-01   8.2686336e-01   0.0000000e+00   8.2686336e-01
   8.7500000e-01   8.2814299e-01   0.0000000e+00   8.2814299e-01
   8.7600000e-01   8.2941933e-01   0.0000000e+00   8.2941933e-01
   8.7700000e-01   8.3069238e-01   0.0000000e+00   8.3069238e-01
   8.7800000e-01   8.3196213e-01   0.0000000e+00   8.3196213e-01
   8.7900000e-01   8.3322859e-01   0.0000000e+00   8.3322859e-01
   8.8000000e-01   8.3449175e-01   0.0000000e+00   8.3449175e-01
   8.8100000e-01   8.3575160e-01   0.0000000e+00   8.3575160e-01
   8.8200000e-01   8.3700815e-01   0.0000000e+00   8.3700815e-01
   8.8300000e-01   8.3826140e-01   0.0000000e+00   8.3826140e-01
   8.8400000e-01   8.3951133e-01   0.0000000e+00   8.3951133e-01
   8.8500000e-01   8.4075795e-01   0.0000000e+00   8.4075795e-01
   8.8600000e-01   8.4200126e-01   0.0000000e+00   8.4200126e-01
   8.8700000e-01   8.4324125e-01   0.0000000e+00   8.4324125e-01
   8.8800000e-01   8.4447792e-01   0.0000000e+00   8.4447792e-01
   8.8900000e-01   8.4571127e-01   0.0000000e+00   8.4571127e-01
   8.9000000e-01   8.4694130e-01   0.0000000e+00   8.4694130e-01
   8.9100000e-01   8.4816800e-01   0.0000000e+00   8.4816800e-01
   8.9200000e-01   8.4939137e-01   0.0000000e+00   8.4939137e-01
   8.9300000e-01   8.5061141e-01   0.0000000e+00   8.5061141e-01
   8.9400000e-01   8.5182811e-01   0.0000000e+00   8.5182811e-01
   8.9500000e-01   8.5304148e-01   0.0000000e+00   8.5304148e-01
   8.9600000e-01   8.5425151e-01   0.0000000e+00   8.5425151e-01
   8.9700000e-01   8.5545820e-01   0.0000000e+00   8.5545820e-01
   8.9800000e-01   8.5666155e-01   0.0000000e+00   8.5666155e-01
   8.9900000e-01   8.5786155e-01   0.0000000e+00   8.5786155e-01
   9.0000000e-01   8.5905821e-01   0.0000000e+00   8.5905821e-01
   9.0100000e-01   8.6025151e-01   0.0000000e+00   8.6025151e-01
   9.0200000e-01   8.6144147e-01   0.0000000e+00   8.6144147e-01
   9.0300000e-01   8.6262806e-01   0.0000000e+00   8.6262806e-01
   9.0400000e-01   8.6381131e-01   0.0000000e+00   8.6381131e-01
   9.0500000e-01   8.6499119e-01   0.0000000e+00   8.6499119e-01
   9.0600000e-01   8.6616771e-01   0.0000000e+00   8.6616771e-01
   9.0700000e-01   8.6734087e-01   0.0000000e+00   8.6734087e-01
   9.0800000e-01   8.6851066e-01   0.0000000e+00   8.6851066e-01
   9.0900000e-01   8.6967709e-01   0.0000000e+00   8.6967709e-01
   9.1000000e-01   8.7084014e-01   0.0000000e+00   8.7084014e-01
   9.1100000e-01   8.7199983e-01   0.0000000e+00   8.7199983e-01
   9.1200000e-01   8.7315614e-01   0.0000000e+00   8.7315614e-01
   9.1300000e-01   8.7430907e-01   0.0000000e+00   8.7430907e-01
   9.1400000e-01   8.7545862e-01   0.0000000e+00   8.7545862e-01
   9.1500000e-01   8.7660480e-01   0.0000000e+00   8.7660480e-01
   9.1600000e-01   8.7774759e-01   0.0000000e+00   8.7774759e-01
   9.1700000e-01   8.7888700e-01   0.0000000e+00   8.7888700e-01
   9.1800000e-01   8.8002302e-01   0.0000000e+00   8.8002302e-01
   9.1900000e-01   8.8115565e-01   0.0000000e+00   8.8115565e-01
   9.2000000e-01   8.8228489e-01   0.0000000e+00   8.8228489e-01
   9.2100000e-01   8.8341074e-01   0.0000000e+00   8.8341074e-01
   9.2200000e-01   8.8453319e-01   0.0000000e+00   8.8453319e-01
   9.2300000e-01   8.8565225e-01   0.0000000e+00   8.8565225e-01
   9.2400000e-01   8.8676791e-01   0.0000000e+00   8.8676791e-01
   9.2500000e-01   8.8788017e-01   0.0000000e+00   8.8788017e-01
   9.2600000e-01   8.8898902e-01   0.0000000e+00   8.8898902e-01
   9.2700000e-01   8.9009447e-01   0.0000000e+00   8.9009447e-01
   9.2800000e-01   8.9119651e-01   0.0000000e+00   8.9119651e-01
   9.2900000e-01   8.9229515e-01   0.0000000e+00   8.9229515e-01
   9.3000000e-01   8.9339037e-01   0.0000000e+00   8.9339037e-01
   9.3100000e-01   8.9448218e-01   0.0000000e+00   8.9448218e-01
   9.3200000e-01   8.9557058e-01   0.0000000e+00   8.9557058e-01
   9.3300000e-01   8.9665556e-01   0.0000000e+00   8.9665556e-01
   9.3400000e-01   8.9773712e-01   0.0000000e+00   8.9773712e-01
   9.3500000e-01   8.9881526e-01   0.0000000e+00   8.9881526e-01
   9.3600000e-01   8.9988998e-01   0.0000000e+00   8.9988998e-01
   9.3700000e-01   9.0096128e-01   0.0000000e+00   9.0096128e-01
   9.3800000e-01   9.0202915e-01   0.0000000e+00   9.0202915e-01
   9.3900000e-01   9.0309359e-01   0.0000000e+00   9.0309359e-01
   9.4000000e-01   9.0415461e-01   0.0000000e+00   9.0415461e-01
   9.4100000e-01   9.0521219e-01   0.0000000e+00   9.0521219e-01
   9.4200000e-01   9.0626634e-01   0.0000000e+00   9.0626634e-01
   9.4300000e-01   9.0731706e-01   0.0000000e+00   9.0731706e-01
   9.4400000e-01   9.0836433e-01   0.0000000e+00   9.0836433e-01
   9.4500000e-01   9.0940818e-01   0.0000000e+00   9.0940818e-01
   9.4600000e-01   9.1044858e-01   0.0000000e+00   9.1044858e-01
   9.4700000e-01   9.1148554e-01   0.0000000e+00   9.1148554e-01
   9.4800000e-01   9.1251906e-01   0.0000000e+00   9.1251906e-01
   9.4900000e-01   9.1354913e-01   0.0000000e+00   9.1354913e-01
   9.5000000e-01   9.1457576e-01   0.0000000e+00   9.1457576e-01
   9.5100000e-01   9.1559893e-01   0.0000000e+00   9.1559893e-01
   9.5200000e-01   9.1661866e-01   0.0000000e+00   9.1661866e-01
   9.5300000e-01   9.1763494e-01   0.0000000e+00   9.1763494e-01
   9.5400000e-01   9.1864776e-01   0.0000000e+00   9.1864776e-01
   9.5500000e-01   9.1965713e-01   0.0000000e+00   9.1965713e-01
   9.5600000e-01   9.2066304e-01   0.0000000e+00   9.2066304e-01
   9.5700000e-01   9.2166550e-01   0.0000000e+00   9.2166550e-01
   9.5800000e-01   9.2266449e-01   0.0000000e+00   9.2266449e-01
   9.5900000e-01   9.2366002e-01   0.0000000e+00   9.2366002e-01
   9.6000000e-01   9.2465210e-01   0.0000000e+00   9.2465210e-01
   9.6100000e-01   9.2564070e-01   0.0000000e+00   9.2564070e-01
   9.6200000e-01   9.2662584e-01   0.0000000e+00   9.2662584e-01
   9.6300000e-01   9.2760752e-01   0.0000000e+00   9.2760752e-01
   9.6400000e-01   9.2858572e-01   0.0000000e+00   9.2858572e-01
   9.6500000e-01   9.2956046e-01   0.0000000e+00   9.2956046e-01
   9.6600000e-01   9.3053172e-01   0.0000000e+00   9.3053172e-01
   9.6700000e-01   9.3149951e-01   0.0000000e+00   9.3149951e-01
   9.6800000e-01   9.3246383e-01   0.0000000e+00   9.3246383e-01
   9.6900000e-01   9.3342467e-01   0.0000000e+00   9.3342467e-01
   9.7000000e-01   9.3438203e-01   0.0000000e+00   9.3438203e-01
   9.7100000e-01   9.3533591e-01   0.0000000e+00   9.3533591e-01
   9.7200000e-01   9.3628631e-01   0.0000000e+00   9.3628631e-01
   9.7300000e-01   9.3723323e-01   0.0000000e+00   9.3723323e-01
   9.7400000e-01   9.3817667e-01   0.0000000e+00   9.3817667e-01
   9.7500000e-01   9.3911663e-01   0.0000000e+00   9.3911663e-01
   9.7600000e-01   9.4005309e-01   0.0000000e+00   9.4005309e-01
   9.7700000e-01   9.4098607e-01   0.0000000e+00   9.4098607e-01
   9.7800000e-01   9.4191556e-01   0.0000000e+00   9.4191556e-01
   9.7900000e-01   9.4284157e-01   0.0000000e+00   9.4284157e-01
   9.8000000e-01   9.4376408e-01   0.0000000e+00   9.4376408e-01
   9.8100000e-01   9.4468310e-01   0.0000000e+00   9.4468310e-01
   9.8200000e-01   9.4559862e-01   0.0000000e+00   9.4559862e-01
   9.8300000e-01   9.4651065e-01   0.0000000e+00   9.4651065e-01
   9.8400000e-01   9.4741918e-01   0.0000000e+00   9.4741918e-01
   9.8500000e-01   9.4832422e-01   0.0000000e+00   9.4832422e-01
   9.8600000e-01   9.4922576e-01   0.0000000e+00   9.4922576e-01
   9.8700000e-01   9.5012379e-01   0.0000000e+00   9.5012379e-01
   9.8800000e-01   9.5101833e-01   0.0000000e+00   9.5101833e-01
   9.8900000e-01   9.5190936e-01   0.0000000e+00   9.5190936e-01
   9.9000000e-01   9.5279689e-01   0.0000000e+00   9.5279689e-01
   9.9100000e-01   9.5368092e-01   0.0000000e+00   9.5368092e-01
   9.9200000e-01   9.5456144e-01   0.0000000e+00   9.5456144e-01
   9.9300000e-01   9.5543845e-01   0.0000000e+00   9.5543845e-01
   9.9400000e-01   9.5631195e-01   0.0000000e+00   9.5631195e-01
   9.9500000e-01   9.5718195e-01   0.0000000e+00   9.5718195e-01
   9.9600000e-01   9.5804843e-01   0.0000000e+00   9.5804843e-01
   9.9700000e-01   9.5891140e-01   0.0000000e+00   9.5891140e-01
   9.9800000e-01   9.5977086e-01   0.0000000e+00   9.5977086e-01
   9.9900000e-01   9.6062681e-01   0.0000000e+00   9.6062681e-01
   1.0000000e+00   9.6147924e-01   0.0000000e+00   9.6147924e-01
   1.0010000e+00   9.6232816e-01   0.0000000e+00   9.6232816e-01
   1.0020000e+00   9.6317356e-01   0.0000000e+00   9.6317356e-01
   1.0030000e+00   9.6401544e-01   0.0000000e+00   9.6401544e-01
   1.0040000e+00   9.6485380e-01   0.0000000e+00   9.6485380e-01
   1.0050000e+00   9.6568865e-01   0.0000000e+00   9.6568865e-01
   1.0060000e+00   9.6651997e-01   0.0000000e+00   9.6651997e-01
   1.0070000e+00   9.6734777e-01   0.0000000e+00   9.6734777e-01
   1.0080000e+00   9.6817205e-01   0.0000000e+00   9.6817205e-01
   1.0090000e+00   9.6899280e-01   0.0000000e+00   9.6899280e-01
   1.0100000e+00   9.6981003e-01   0.0000000e+00   9.6981003e-01
   1.0110000e+00   9.7062374e-01   0.0000000e+00   9.7062374e-01
   1.0120000e+00   9.7143392e-01   0.0000000e+00   9.7143392e-01
   1.0130000e+00   9.7224057e-01   0.0000000e+00   9.7224057e-01
   1.0140000e+00   9.7304369e-01   0.0000000e+00   9.7304369e-01
   1.0150000e+00   9.7384328e-01   0.0000000e+00   9.7384328e-01
   1.0160000e+00   9.7463934e-01   0.0000000e+00   9.7463934e-01
   1.0170000e+00   9.7543188e-01   0.0000000e+00   9.7543188e-01
   1.0180000e+00   9.7622088e-01   0.0000000e+00   9.7622088e-01
   1.0190000e+00   9.7700635e-01   0.0000000e+00   9.7700635e-01
   1.0200000e+00   9.7778828e-01   0.0000000e+00   9.7778828e-01
   1.0210000e+00   9.7856668e-01   0.0000000e+00   9.7856668e-01
   1.0220000e+00   9.7934155e-01   0.0000000e+00   9.7934155e-01
   1.0230000e+00   9.8011288e-01   0.0000000e+00   9.8011288e-01
   1.0240000e+00   9.8088068e-01   0.0000000e+00   9.8088068e-01
   1.0250000e+00   9.8164493e-01   0.0000000e+00   9.8164493e-01
   1.0260000e+00   9.8240565e-01   0.0000000e+00   9.8240565e-01
   1.0270000e+00   9.8316284e-01   0.0000000e+00   9.8316284e-01
   1.0280000e+00   9.8391648e-01   0.0000000e+00   9.8391648e-01
   1.0290000e+00   9.8466658e-01   0.0000000e+00   9.8466658e-01
   1.0300000e+00   9.8541314e-01   0.0000000e+00   9.8541314e-01
   1.0310000e+00   9.8615616e-01   0.0000000e+00   9.8615616e-01
   1.0320000e+00   9.8689564e-01   0.0000000e+00   9.8689564e-01
   1.0330000e+00   9.8763158e-01   0.0000000e+00   9.8763158e-01
   1.0340000e+00   9.8836397e-01   0.0000000e+00   9.8836397e-01
   1.0350000e+00   9.8909282e-01   0.0000000e+00   9.8909282e-01
   1.0360000e+00   9.8981812e-01   0.0000000e+00   9.8981812e-01
   1.0370000e+00   9.9053988e-01   0.0000000e+00   9.9053988e-01
   1.0380000e+00   9.9125810e-01   0.0000000e+00   9.9125810e-01
   1.0390000e+00   9.9197276e-01   0.0000000e+00   9.9197276e-01
   1.0400000e+00   9.9268389e-01   0.0000000e+00   9.9268389e-01
   1.0410000e+00   9.9339146e-01   0.0000000e+00   9.9339146e-01
   1.0420000e+00   9.9409549e-01   0.0000000e+00   9.9409549e-01
   1.0430000e+00   9.9479596e-01   0.0000000e+00   9.9479596e-01
   1.0440000e+00   9.9549289e-01   0.0000000e+00   9.9549289e-01
   1.0450000e+00   9.9618627e-01   0.0000000e+00   9.9618627e-01
   1.0460000e+00   9.9687610e-01   0.0000000e+00   9.9687610e-01
   1.0470000e+00   9.9756238e-01   0.0000000e+00   9.9756238e-01
   1.0480000e+00   9.9824511e-01   0.0000000e+00   9.9824511e-01
   1.0490000e+00   9.9892429e-01   0.0000000e+00   9.9892429e-01
   1.0500000e+00   9.9959992e-01   0.0000000e+00   9.9959992e-01
   1.0510000e+00   1.0002720e+00   0.0000000e+00   1.0002720e+00
   1.0520000e+00   1.0009405e+00   0.0000000e+00   1.0009405e+00
   1.0530000e+00   1.0016055e+00   0.0000000e+00   1.0016055e+00
   1.0540000e+00   1.0022669e+00   0.0000000e+00   1.0022669e+00
   1.0550000e+00   1.0029248e+00   0.0000000e+00   1.0029248e+00
   1.0560000e+00   1.0035791e+00   0.0000000e+00   1.0035791e+00
   1.0570000e+00   1.0042298e+00   0.0000000e+00   1.0042298e+00
   1.0580000e+00   1.0048770e+00   0.0000000e+00   1.0048770e+00
   1.0590000e+00   1.0055207e+00   0.0000000e+00   1.0055207e+00
   1.0600000e+00   1.0061608e+00   0.0000000e+00   1.0061608e+00
   1.0610000e+00   1.0067973e+00   0.0000000e+00   1.0067973e+00
   1.0620000e+00   1.0074303e+00   0.0000000e+00   1.0074303e+00
   1.0630000e+00   1.0080597e+00   0.0000000e+00   1.0080597e+00
   1.0640000e+00   1.0086856e+00   0.0000000e+00   1.0086856e+00
   1.0650000e+00   1.0093079e+00   0.0000000e+00   1.0093079e+00
   1.0660000e+00   1.0099266e+00   0.0000000e+00   1.0099266e+00
   1.0670000e+00   1.0105418e+00   0.0000000e+00   1.0105418e+00
   1.0680000e+00   1.0111535e+00   0.0000000e+00   1.0111535e+00
   1.0690000e+00   1.0117615e+00   0.0000000e+00   1.0117615e+00
   1.0700000e+00   1.0123661e+00   0.0000000e+00   1.0123661e+00
   1.0710000e+00   1.0129670e+00   0.0000000e+00   1.0129670e+00
   1.0720000e+00   1.0135644e+00   0.0000000e+00   1.0135644e+00
   1.0730000e+00   1.0141583e+00   0.0000000e+00   1.0141583e+00
   1.0740000e+00   1.0147486e+00   0.0000000e+00   1.0147486e+00
   1.0750000e+00   1.0153353e+00   0.0000000e+00   1.0153353e+00
   1.0760000e+00   1.0159185e+00   0.0000000e+00   1.0159185e+00
   1.0770000e+00   1.0164981e+00   0.0000000e+00   1.0164981e+00
   1.0780000e+00   1.0170742e+00   0.0000000e+00   1.0170742e+00
   1.0790000e+00   1.0176467e+00   0.0000000e+00   1.0176467e+00
   1.0800000e+00   1.0182156e+00   0.0000000e+00   1.0182156e+00
   1.0810000e+00   1.0187810e+00   0.0000000e+00   1.0187810e+00
   1.0820000e+00   1.0193428e+00   0.0000000e+00   1.0193428e+00
   1.0830000e+00   1.0199011e+00   0.0000000e+00   1.0199011e+00
   1.0840000e+00   1.0204558e+00   0.0000000e+00   1.0204558e+00
   1.0850000e+00   1.0210070e+00   0.0000000e+00   1.0210070e+00
   1.0860000e+00   1.0215545e+00   0.0000000e+00   1.0215545e+00
   1.0870000e+00   1.0220986e+00   0.0000000e+00   1.0220986e+00
   1.0880000e+00   1.0226391e+00   0.0000000e+00   1.0226391e+00
   1.0890000e+00   1.0231760e+00   0.0000000e+00   1.0231760e+00
   1.0900000e+00   1.0237093e+00   0.0000000e+00   1.0237093e+00
   1.0910000e+00   1.0242391e+00   0.0000000e+00   1.0242391e+00
   1.0920000e+00   1.0247654e+00   0.0000000e+00   1.0247654e+00
   1.0930000e+00   1.0252880e+00   0.0000000e+00   1.0252880e+00
   1.0940000e+00   1.0258072e+00   0.0000000e+00   1.0258072e+00
   1.0950000e+00   1.0263227e+00   0.0000000e+00   1.0263227e+00
   1.0960000e+00   1.0268347e+00   0.0000000e+00   1.0268347e+00
   1.0970000e+00   1.0273432e+00   0.0000000e+00   1.0273432e+00
   1.0980000e+00   1.0278481e+00   0.0000000e+00   1.0278481e+00
   1.0990000e+00   1.0283494e+00   0.0000000e+00   1.0283494e+00
   1.1000000e+00   1.0288472e+00   0.0000000e+00   1.0288472e+00
   1.1010000e+00   1.0293414e+00   0.0000000e+00   1.0293414e+00
   1.1020000e+00   1.0298321e+00   0.0000000e+00   1.0298321e+00
   1.1030000e+00   1.0303192e+00   0.0000000e+00   1.0303192e+00
   1.1040000e+00   1.0308028e+00   0.0000000e+00   1.0308028e+00
   1.1050000e+00   1.0312828e+00   0.0000000e+00   1.0312828e+00
   1.1060000e+00   1.0317592e+00   0.0000000e+00   1.0317592e+00
   1.1070000e+00   1.0322321e+00   0.0000000e+00   1.0322321e+00
   1.1080000e+00   1.0327014e+00   0.0000000e+00   1.0327014e+00
   1.1090000e+00   1.0331672e+00   0.0000000e+00   1.0331672e+00
   1.1100000e+00   1.0336294e+00   0.0000000e+00   1.0336294e+00
   1.1110000e+00   1.0340881e+00   0.0000000e+00   1.0340881e+00
   1.1120000e+00   1.0345432e+00   0.0000000e+00   1.0345432e+00
   1.1130000e+00   1.0349948e+00   0.0000000e+00   1.0349948e+00
   1.1140000e+00   1.0354428e+00   0.0000000e+00   1.0354428e+00
   1.1150000e+00   1.0358873e+00   0.0000000e+00   1.0358873e+00
   1.1160000e+00   1.0363282e+00   0.0000000e+00   1.0363282e+00
   1.1170000e+00   1.0367655e+00   0.0000000e+00   1.0367655e+00
   1.1180000e+00   1.0371993e+00   0.0000000e+00   1.0371993e+00
   1.1190000e+00   1.0376296e+00   0.0000000e+00   1.0376296e+00
   1.1200000e+00   1.0380563e+00   0.0000000e+00   1.0380563e+00
   1.1210000e+00   1.0384795e+00   0.0000000e+00   1.0384795e+00
   1.1220000e+00   1.0388991e+00   0.0000000e+00   1.0388991e+00
   1.1230000e+00   1.0393151e+00   0.0000000e+00   1.0393151e+00
   1.1240000e+00   1.0397276e+00   0.0000000e+00   1.0397276e+00
   1.1250000e+00   1.0401366e+00   0.0000000e+00   1.0401366e+00
   1.1260000e+00   1.0405420e+00   0.0000000e+00   1.0405420e+00
   1.1270000e+00   1.0409439e+00   0.0000000e+00   1.0409439e+00
   1.1280000e+00   1.0413422e+00   0.0000000e+00   1.0413422e+00
   1.1290000e+00   1.0417370e+00   0.0000000e+00   1.0417370e+00
   1.1300000e+00   1.0421282e+00   0.0000000e+00   1.0421282e+00
   1.1310000e+00   1.0425159e+00   0.0000000e+00   1.0425159e+00
   1.1320000e+00   1.0429000e+00   0.0000000e+00   1.0429000e+00
   1.1330000e+00   1.0432806e+00   0.0000000e+00   1.0432806e+00
   1.1340000e+00   1.0436577e+00   0.0000000e+00   1.0436577e+00
   1.1350000e+00   1.0440312e+00   0.0000000e+00   1.0440312e+00
   1.1360000e+00   1.0444012e+00   0.0000000e+00   1.0444012e+00
   1.1370000e+00   1.0447676e+00   0.0000000e+00   1.0447676e+00
   1.1380000e+00   1.0451305e+00   0.0000000e+00   1.0451305e+00
   1.1390000e+00   1.0454898e+00   0.0000000e+00   1.0454898e+00
   1.1400000e+00   1.0458456e+00   0.0000000e+00   1.0458456e+00
   1.1410000e+00   1.0461979e+00   0.0000000e+00   1.0461979e+00
   1.1420000e+00   1.0465467e+00   0.0000000e+00   1.0465467e+00
   1.1430000e+00   1.0468919e+00   0.0000000e+00   1.0468919e+00
   1.1440000e+00   1.0472335e+00   0.0000000e+00   1.0472335e+00
   1.1450000e+00   1.0475717e+00   0.0000000e+00   1.0475717e+00
   1.1460000e+00   1.0479063e+00   0.0000000e+00   1.0479063e+00
   1.1470000e+00   1.0482373e+00   0.0000000e+00   1.0482373e+00
   1.1480000e+00   1.0485649e+00   0.0000000e+00   1.0485649e+00
   1.1490000e+00   1.0488889e+00   0.0000000e+00   1.0488889e+00
   1.1500000e+00   1.0492093e+00   0.0000000e+00   1.0492093e+00
   1.1510000e+00   1.0495263e+00   0.0000000e+00   1.0495263e+00
   1.1520000e+00   1.0498397e+00   0.0000000e+00   1.0498397e+00
   1.1530000e+00   1.0501496e+00   0.0000000e+00   1.0501496e+00
   1.1540000e+00   1.0504559e+00   0.0000000e+00   1.0504559e+00
   1.1550000e+00   1.0507588e+00   0.0000000e+00   1.0507588e+00
   1.1560000e+00   1.0510581e+00   0.0000000e+00   1.0510581e+00
   1.1570000e+00   1.0513538e+00   0.0000000e+00   1.0513538e+00
   1.1580000e+00   1.0516461e+00   0.0000000e+00   1.0516461e+00
   1.1590000e+00   1.0519348e+00   0.0000000e+00   1.0519348e+00
   1.1600000e+00   1.0522201e+00   0.0000000e+00   1.0522201e+00
   1.1610000e+00   1.0525017e+00   0.0000000e+00   1.0525017e+00
   1.1620000e+00   1.0527799e+00   0.0000000e+00   1.0527799e+00
   1.1630000e+00   1.0530546e+00   0.0000000e+00   1.0530546e+00
   1.1640000e+00   1.0533257e+00   0.0000000e+00   1.0533257e+00
   1.1650000e+00   1.0535933e+00   0.0000000e+00   1.0535933e+00
   1.1660000e+00   1.0538574e+00   0.0000000e+00   1.0538574e+00
   1.1670000e+00   1.0541180e+00   0.0000000e+00   1.0541180e+00
   1.1680000e+00   1.0543751e+00   0.0000000e+00   1.0543751e+00
   1.1690000e+00   1.0546286e+00   0.0000000e+00   1.0546286e+00
   1.1700000e+00   1.0548787e+00   0.0000000e+00   1.0548787e+00
   1.1710000e+00   1.0551252e+00   0.0000000e+00   1.0551252e+00
   1.1720000e+00   1.0553683e+00   0.0000000e+00   1.0553683e+00
   1.1730000e+00   1.0556078e+00   0.0000000e+00   1.0556078e+00
   1.1740000e+00   1.0558438e+00   0.0000000e+00   1.0558438e+00
   1.1750000e+00   1.0560763e+00   0.0000000e+00   1.0560763e+00
   1.1760000e+00   1.0563053e+00   0.0000000e+00   1.0563053e+00
   1.1770000e+00   1.0565308e+00   0.0000000e+00   1.0565308e+00
   1.1780000e+00   1.0567528e+00   0.0000000e+00   1.0567528e+00
   1.1790000e+00   1.0569713e+00   0.0000000e+00   1.0569713e+00
   1.1800000e+00   1.0571863e+00   0.0000000e+00   1.0571863e+00
   1.1810000e+00   1.0573978e+00   0.0000000e+00   1.0573978e+00
   1.1820000e+00   1.0576058e+00   0.0000000e+00   1.0576058e+00
   1.1830000e+00   1.0578103e+00   0.0000000e+00   1.0578103e+00
   1.1840000e+00   1.0580113e+00   0.0000000e+00   1.0580113e+00
   1.1850000e+00   1.0582088e+00   0.0000000e+00   1.0582088e+00
   1.1860000e+00   1.0584028e+00   0.0000000e+00   1.0584028e+00
   1.1870000e+00   1.0585934e+00   0.0000000e+00   1.0585934e+00
   1.1880000e+00   1.0587804e+00   0.0000000e+00   1.0587804e+00
   1.1890000e+00   1.0589639e+00   0.0000000e+00   1.0589639e+00
   1.1900000e+00   1.0591440e+00   0.0000000e+00   1.0591440e+00
   1.1910000e+00   1.0593206e+00   0.0000000e+00   1.0593206e+00
   1.1920000e+00   1.0594937e+00   0.0000000e+00   1.0594937e+00
   1.1930000e+00   1.0596633e+00   0.0000000e+00   1.0596633e+00
   1.1940000e+00   1.0598294e+00   0.0000000e+00   1.0598294e+00
   1.1950000e+00   1.0599921e+00   0.0000000e+00   1.0599921e+00
   1.1960000e+00   1.0601512e+00   0.0000000e+00   1.0601512e+00
   1.1970000e+00   1.0603069e+00   0.0000000e+00   1.0603069e+00
   1.1980000e+00   1.0604591e+00   0.0000000e+00   1.0604591e+00
   1.1990000e+00   1.0606079e+00   0.0000000e+00   1.0606079e+00
   1.2000000e+00   1.0607531e+00   0.0000000e+00   1.0607531e+00
   1.2010000e+00   1.0608949e+00   0.0000000e+00   1.0608949e+00
   1.2020000e+00   1.0610332e+00   0.0000000e+00   1.0610332e+00
   1.2030000e+00   1.0611681e+00   0.0000000e+00   1.0611681e+00
   1.2040000e+00   1.0612995e+00   0.0000000e+00   1.0612995e+00
   1.2050000e+00   1.0614274e+00   0.0000000e+00   1.0614274e+00
   1.2060000e+00   1.0615519e+00   0.0000000e+00   1.0615519e+00
   1.2070000e+00   1.0616728e+00   0.0000000e+00   1.0616728e+00
   1.2080000e+00   1.0617904e+00   0.0000000e+00   1.0617904e+00
   1.2090000e+00   1.0619044e+00   0.0000000e+00   1.0619044e+00
   1.2100000e+00   1.0620151e+00   0.0000000e+00   1.0620151e+00
   1.2110000e+00   1.0621222e+00   0.0000000e+00   1.0621222e+00
   1.2120000e+00   1.0622259e+00   0.0000000e+00   1.0622259e+00
   1.2130000e+00   1.0623262e+00   0.0000000e+00   1.0623262e+00
   1.2140000e+00   1.0624229e+00   0.0000000e+00   1.0624229e+00
   1.2150000e+00   1.0625163e+00   0.0000000e+00   1.0625163e+00
   1.2160000e+00   1.0626062e+00   0.0000000e+00   1.0626062e+00
   1.2170000e+00   1.0626926e+00   0.0000000e+00   1.0626926e+00
   1.2180000e+00   1.0627756e+00   0.0000000e+00   1.0627756e+00
   1.2190000e+00   1.0628552e+00   0.0000000e+00   1.0628552e+00
   1.2200000e+00   1.0629313e+00   0.0000000e+00   1.0629313e+00
   1.2210000e+00   1.0630040e+00   0.0000000e+00   1.0630040e+00
   1.2220000e+00   1.0630732e+00   0.0000000e+00   1.0630732e+00
   1.2230000e+00   1.0631390e+00   0.0000000e+00   1.0631390e+00
   1.2240000e+00   1.0632014e+00   0.0000000e+00   1.0632014e+00
   1.2250000e+00   1.0632603e+00   0.0000000e+00   1.0632603e+00
   1.2260000e+00   1.0633158e+00   0.0000000e+00   1.0633158e+00
   1.2270000e+00   1.0633679e+00   0.0000000e+00   1.0633679e+00
   1.2280000e+00   1.0634165e+00   0.0000000e+00   1.0634165e+00
   1.2290000e+00   1.0634618e+00   0.0000000e+00   1.0634618e+00
   1.2300000e+00   1.0635036e+00   0.0000000e+00   1.0635036e+00
   1.2310000e+00   1.0635419e+00   0.0000000e+00   1.0635419e+00
   1.2320000e+00   1.0635769e+00   0.0000000e+00   1.0635769e+00
   1.2330000e+00   1.0636084e+00   0.0000000e+00   1.0636084e+00
   1.2340000e+00   1.0636365e+00   0.0000000e+00   1.0636365e+00
   1.2350000e+00   1.0636612e+00   0.0000000e+00   1.0636612e+00
   1.2360000e+00   1.0636825e+00   0.0000000e+00   1.0636825e+00
   1.2370000e+00   1.0637004e+00   0.0000000e+00   1.0637004e+00
   1.2380000e+00   1.0637148e+00   0.0000000e+00   1.0637148e+00
   1.2390000e+00   1.0637259e+00   0.0000000e+00   1.0637259e+00
   1.2400000e+00   1.0637335e+00   0.0000000e+00   1.0637335e+00
   1.2410000e+00   1.0637378e+00   0.0000000e+00   1.0637378e+00
   1.2420000e+00   1.0637386e+00   0.0000000e+00   1.0637386e+00
   1.2430000e+00   1.0637361e+00   0.0000000e+00   1.0637361e+00
   1.2440000e+00   1.0637301e+00   0.0000000e+00   1.0637301e+00
   1.2450000e+00   1.0637208e+00   0.0000000e+00   1.0637208e+00
   1.2460000e+00   1.0637080e+00   0.0000000e+00   1.0637080e+00
   1.2470000e+00   1.0636919e+00   0.0000000e+00   1.0636919e+00
   1.2480000e+00   1.0636724e+00   0.0000000e+00   1.0636724e+00
   1.2490000e+00   1.0636495e+00   0.0000000e+00   1.0636495e+00
   1.2500000e+00   1.0636232e+00   0.0000000e+00   1.0636232e+00
   1.2510000e+00   1.0635935e+00   0.0000000e+00   1.0635935e+00
   1.2520000e+00   1.0635604e+00   0.0000000e+00   1.0635604e+00
   1.2530000e+00   1.0635240e+00   0.0000000e+00   1.0635240e+00
   1.2540000e+00   1.0634842e+00   0.0000000e+00   1.0634842e+00
   1.2550000e+00   1.0634410e+00   0.0000000e+00   1.0634410e+00
   1.2560000e+00   1.0633944e+00   0.0000000e+00   1.0633944e+00
   1.2570000e+00   1.0633445e+00   0.0000000e+00   1.0633445e+00
   1.2580000e+00   1.0632912e+00   0.0000000e+00   1.0632912e+00
   1.2590000e+00   1.0632345e+00   0.0000000e+00   1.0632345e+00
   1.2600000e+00   1.0631745e+00   0.0000000e+00   1.0631745e+00
   1.2610000e+00   1.0631111e+00   0.0000000e+00   1.0631111e+00
   1.2620000e+00   1.0630443e+00   0.0000000e+00   1.0630443e+00
   1.2630000e+00   1.0629742e+00   0.0000000e+00   1.0629742e+00
   1.2640000e+00   1.0629007e+00   0.0000000e+00   1.0629007e+00
   1.2650000e+00   1.0628239e+00   0.0000000e+00   1.0628239e+00
   1.2660000e+00   1.0627437e+00   0.0000000e+00   1.0627437e+00
   1.2670000e+00   1.0626602e+00   0.0000000e+00   1.0626602e+00
   1.2680000e+00   1.0625733e+00   0.0000000e+00   1.0625733e+00
   1.2690000e+00   1.0624831e+00   0.0000000e+00   1.0624831e+00
   1.2700000e+00   1.0623895e+00   0.0000000e+00   1.0623895e+00
   1.2710000e+00   1.0622926e+00   0.0000000e+00   1.0622926e+00
   1.2720000e+00   1.0621924e+00   0.0000000e+00   1.0621924e+00
   1.2730000e+00   1.0620888e+00   0.0000000e+00   1.0620888e+00
   1.2740000e+00   1.0619819e+00   0.0000000e+00   1.0619819e+00
   1.2750000e+00   1.0618717e+00   0.0000000e+00   1.0618717e+00
   1.2760000e+00   1.0617581e+00   0.0000000e+00   1.0617581e+00
   1.2770000e+00   1.0616412e+00   0.0000000e+00   1.0616412e+00
   1.2780000e+00   1.0615210e+00   0.0000000e+00   1.0615210e+00
   1.2790000e+00   1.0613974e+00   0.0000000e+00   1.0613974e+00
   1.2800000e+00   1.0612706e+00   0.0000000e+00   1.0612706e+00
   1.2810000e+00   1.0611404e+00   0.0000000e+00   1.0611404e+00
   1.2820000e+00   1.0610069e+00   0.0000000e+00   1.0610069e+00
   1.2830000e+00   1.0608701e+00   0.0000000e+00   1.0608701e+00
   1.2840000e+00   1.0607300e+00   0.0000000e+00   1.0607300e+00
   1.2850000e+00   1.0605866e+00   0.0000000e+00   1.0605866e+00
   1.2860000e+00   1.0604399e+00   0.0000000e+00   1.0604399e+00
   1.2870000e+00   1.0602899e+00   0.0000000e+00   1.0602899e+00
   1.2880000e+00   1.0601366e+00   0.0000000e+00   1.0601366e+00
   1.2890000e+00   1.0599800e+00   0.0000000e+00   1.0599800e+00
   1.2900000e+00   1.0598200e+00   0.0000000e+00   1.0598200e+00
   1.2910000e+00   1.0596569e+00   0.0000000e+00   1.0596569e+00
   1.2920000e+00   1.0594904e+00   0.0000000e+00   1.0594904e+00
   1.2930000e+00   1.0593206e+00   0.0000000e+00   1.0593206e+00
   1.2940000e+00   1.0591475e+00   0.0000000e+00   1.0591475e+00
   1.2950000e+00   1.0589712e+00   0.0000000e+00   1.0589712e+00
   1.2960000e+00   1.0587916e+00   0.0000000e+00   1.0587916e+00
   1.2970000e+00   1.0586087e+00   0.0000000e+00   1.0586087e+00
   1.2980000e+00   1.0584225e+00   0.0000000e+00   1.0584225e+00
   1.2990000e+00   1.0582331e+00   0.0000000e+00   1.0582331e+00
   1.3000000e+00   1.0580404e+00   0.0000000e+00   1.0580404e+00
   1.3010000e+00   1.0578444e+00   0.0000000e+00   1.0578444e+00
   1.3020000e+00   1.0576452e+00   0.0000000e+00   1.0576452e+00
   1.3030000e+00   1.0574427e+00   0.0000000e+00   1.0574427e+00
   1.3040000e+00   1.0572369e+00   0.0000000e+00   1.0572369e+00
   1.3050000e+00   1.0570279e+00   0.0000000e+00   1.0570279e+00
   1.3060000e+00   1.0568156e+00   0.0000000e+00   1.0568156e+00
   1.3070000e+00   1.0566001e+00   0.0000000e+00   1.0566001e+00
   1.3080000e+00   1.0563814e+00   0.0000000e+00   1.0563814e+00
   1.3090000e+00   1.0561594e+00   0.0000000e+00   1.0561594e+00
   1.3100000e+00   1.0559341e+00   0.0000000e+00   1.0559341e+00
   1.3110000e+00   1.0557057e+00   0.0000000e+00   1.0557057e+00
   1.3120000e+00   1.0554739e+00   0.0000000e+00   1.0554739e+00
   1.3130000e+00   1.0552390e+00   0.0000000e+00   1.0552390e+00
   1.3140000e+00   1.0550008e+00   0.0000000e+00   1.0550008e+00
   1.3150000e+00   1.0547594e+00   0.0000000e+00   1.0547594e+00
   1.3160000e+00   1.0545148e+00   0.0000000e+00   1.0545148e+00
   1.3170000e+00   1.0542669e+00   0.0000000e+00   1.0542669e+00
   1.3180000e+00   1.0540159e+00   0.0000000e+00   1.0540159e+00
   1.3190000e+00   1.0537616e+00   0.0000000e+00   1.0537616e+00
   1.3200000e+00   1.0535041e+00   0.0000000e+00   1.0535041e+00
   1.3210000e+00   1.0532434e+00   0.0000000e+00   1.0532434e+00
   1.3220000e+00   1.0529795e+00   0.0000000e+00   1.0529795e+00
   1.3230000e+00   1.0527123e+00   0.0000000e+00   1.0527123e+00
   1.3240000e+00   1.0524420e+00   0.0000000e+00   1.0524420e+00
   1.3250000e+00   1.0521685e+00   0.0000000e+00   1.0521685e+00
   1.3260000e+00   1.0518918e+00   0.0000000e+00   1.0518918e+00
   1.3270000e+00   1.0516119e+00   0.0000000e+00   1.0516119e+00
   1.3280000e+00   1.0513288e+00   0.0000000e+00   1.0513288e+00
   1.3290000e+00   1.0510425e+00   0.0000000e+00   1.0510425e+00
   1.3300000e+00   1.0507530e+00   0.0000000e+00   1.0507530e+00
   1.3310000e+00   1.0504603e+00   0.0000000e+00   1.0504603e+00
   1.3320000e+00   1.0501645e+00   0.0000000e+00   1.0501645e+00
   1.3330000e+00   1.0498655e+00   0.0000000e+00   1.0498655e+00
   1.3340000e+00   1.0495633e+00   0.0000000e+00   1.0495633e+00
   1.3350000e+00   1.0492580e+00   0.0000000e+00   1.0492580e+00
   1.3360000e+00   1.0489495e+00   0.0000000e+00   1.0489495e+00
   1.3370000e+00   1.0486378e+00   0.0000000e+00   1.0486378e+00
   1.3380000e+00   1.0483230e+00   0.0000000e+00   1.0483230e+00
   1.3390000e+00   1.0480050e+00   0.0000000e+00   1.0480050e+00
   1.3400000e+00   1.0476838e+00   0.0000000e+00   1.0476838e+00
   1.3410000e+00   1.0473595e+00   0.0000000e+00   1.0473595e+00
   1.3420000e+00   1.0470321e+00   0.0000000e+00   1.0470321e+00
   1.3430000e+00   1.0467015e+00   0.0000000e+00   1.0467015e+00
   1.3440000e+00   1.0463678e+00   0.0000000e+00   1.0463678e+00
   1.3450000e+00   1.0460309e+00   0.0000000e+00   1.0460309e+00
   1.3460000e+00   1.0456909e+00   0.0000000e+00   1.0456909e+00
   1.3470000e+00   1.0453478e+00   0.0000000e+00   1.0453478e+00
   1.3480000e+00   1.0450015e+00   0.0000000e+00   1.0450015e+00
   1.3490000e+00   1.0446521e+00   0.0000000e+00   1.0446521e+00
   1.3500000e+00   1.0442996e+00   0.0000000e+00   1.0442996e+00
   1.3510000e+00   1.0439440e+00   0.0000000e+00   1.0439440e+00
   1.3520000e+00   1.0435852e+00   0.0000000e+00   1.0435852e+00
   1.3530000e+00   1.0432234e+00   0.0000000e+00   1.0432234e+00
   1.3540000e+00   1.0428584e+00   0.0000000e+00   1.0428584e+00
   1.3550000e+00   1.0424903e+00   0.0000000e+00   1.0424903e+00
   1.3560000e+00   1.0421192e+00   0.0000000e+00   1.0421192e+00
   1.3570000e+00   1.0417449e+00   0.0000000e+00   1.0417449e+00
   1.3580000e+00   1.0413675e+00   0.0000000e+00   1.0413675e+00
   1.3590000e+00   1.0409871e+00   0.0000000e+00   1.0409871e+00
   1.3600000e+00   1.0406035e+00   0.0000000e+00   1.0406035e+00
   1.3610000e+00   1.0402169e+00   0.0000000e+00   1.0402169e+00
   1.3620000e+00   1.0398272e+00   0.0000000e+00   1.0398272e+00
   1.3630000e+00   1.0394343e+00   0.0000000e+00   1.0394343e+00
   1.3640000e+00   1.0390385e+00   0.0000000e+00   1.0390385e+00
   1.3650000e+00   1.0386395e+00   0.0000000e+00   1.0386395e+00
   1.3660000e+00   1.0382375e+00   0.0000000e+00   1.0382375e+00
   1.3670000e+00   1.0378324e+00   0.0000000e+00   1.0378324e+00
   1.3680000e+00   1.0374243e+00   0.0000000e+00   1.0374243e+00
   1.3690000e+00   1.0370130e+00   0.0000000e+00   1.0370130e+00
   1.3700000e+00   1.0365988e+00   0.0000000e+00   1.0365988e+00
   1.3710000e+00   1.0361815e+00   0.0000000e+00   1.0361815e+00
   1.3720000e+00   1.0357611e+00   0.0000000e+00   1.0357611e+00
   1.3730000e+00   1.0353377e+00   0.0000000e+00   1.0353377e+00
   1.3740000e+00   1.0349112e+00   0.0000000e+00   1.0349112e+00
   1.3750000e+00   1.0344817e+00   0.0000000e+00   1.0344817e+00
   1.3760000e+00   1.0340492e+00   0.0000000e+00   1.0340492e+00
   1.3770000e+00   1.0336136e+00   0.0000000e+00   1.0336136e+00
   1.3780000e+00   1.0331750e+00   0.0000000e+00   1.0331750e+00
   1.3790000e+00   1.0327334e+00   0.0000000e+00   1.0327334e+00
   1.3800000e+00   1.0322888e+00   0.0000000e+00   1.0322888e+00
   1.3810000e+00   1.0318411e+00   0.0000000e+00   1.0318411e+00
   1.3820000e+00   1.0313905e+00   0.0000000e+00   1.0313905e+00
   1.3830000e+00   1.0309368e+00   0.0000000e+00   1.0309368e+00
   1.3840000e+00   1.0304801e+00   0.0000000e+00   1.0304801e+00
   1.3850000e+00   1.0300204e+00   0.0000000e+00   1.0300204e+00
   1.3860000e+00   1.0295577e+00   0.0000000e+00   1.0295577e+00
   1.3870000e+00   1.0290920e+00   0.0000000e+00   1.0290920e+00
   1.3880000e+00   1.0286233e+00   0.0000000e+00   1.0286233e+00
   1.3890000e+00   1.0281517e+00   0.0000000e+00   1.0281517e+00
   1.3900000e+00   1.0276770e+00   0.0000000e+00   1.0276770e+00
   1.3910000e+00   1.0271994e+00   0.0000000e+00   1.0271994e+00
   1.3920000e+00   1.0267188e+00   0.0000000e+00   1.0267188e+00
   1.3930000e+00   1.0262352e+00   0.0000000e+00   1.0262352e+00
   1.3940000e+00   1.0257486e+00   0.0000000e+00   1.0257486e+00
   1.3950000e+00   1.0252591e+00   0.0000000e+00   1.0252591e+00
   1.3960000e+00   1.0247666e+00   0.0000000e+00   1.0247666e+00
   1.3970000e+00   1.0242711e+00   0.0000000e+00   1.0242711e+00
   1.3980000e+00   1.0237727e+00   0.0000000e+00   1.0237727e+00
   1.3990000e+00   1.0232713e+00   0.0000000e+00   1.0232713e+00
   1.4000000e+00   1.0227670e+00   0.0000000e+00   1.0227670e+00
   1.4010000e+00   1.0222598e+00   0.0000000e+00   1.0222598e+00
   1.4020000e+00   1.0217496e+00   0.0000000e+00   1.0217496e+00
   1.4030000e+00   1.0212364e+00   0.0000000e+00   1.0212364e+00
   1.4040000e+00   1.0207204e+00   0.0000000e+00   1.0207204e+00
   1.4050000e+00   1.0202014e+00   0.0000000e+00   1.0202014e+00
   1.4060000e+00   1.0196794e+00   0.0000000e+00   1.0196794e+00
   1.4070000e+00   1.0191546e+00   0.0000000e+00   1.0191546e+00
   1.4080000e+00   1.0186268e+00   0.0000000e+00   1.0186268e+00
   1.4090000e+00   1.0180961e+00   0.0000000e+00   1.0180961e+00
   1.4100000e+00   1.0175625e+00   0.0000000e+00   1.0175625e+00
   1.4110000e+00   1.0170260e+00   0.0000000e+00   1.0170260e+00
   1.4120000e+00   1.0164866e+00   0.0000000e+00   1.0164866e+00
   1.4130000e+00   1.0159443e+00   0.0000000e+00   1.0159443e+00
   1.4140000e+00   1.0153991e+00   0.0000000e+00   1.0153991e+00
   1.4150000e+00   1.0148510e+00   0.0000000e+00   1.0148510e+00
   1.4160000e+00   1.0143000e+00   0.0000000e+00   1.0143000e+00
   1.4170000e+00   1.0137461e+00   0.0000000e+00   1.0137461e+00
   1.4180000e+00   1.0131894e+00   0.0000000e+00   1.0131894e+00
   1.4190000e+00   1.0126298e+00   0.0000000e+00   1.0126298e+00
   1.4200000e+00   1.0120673e+00   0.0000000e+00   1.0120673e+00
   1.4210000e+00   1.0115019e+00   0.0000000e+00   1.0115019e+00
   1.4220000e+00   1.0109337e+00   0.0000000e+00   1.0109337e+00
   1.4230000e+00   1.0103626e+00   0.0000000e+00   1.0103626e+00
   1.4240000e+00   1.0097886e+00   0.0000000e+00   1.0097886e+00
   1.4250000e+00   1.0092118e+00   0.0000000e+00   1.0092118e+00
   1.4260000e+00   1.0086322e+00   0.0000000e+00   1.0086322e+00
   1.4270000e+00   1.0080497e+00   0.0000000e+00   1.0080497e+00
   1.4280000e+00   1.0074644e+00   0.0000000e+00   1.0074644e+00
   1.4290000e+00   1.0068762e+00   0.0000000e+00   1.0068762e+00
   1.4300000e+00   1.0062852e+00   0.0000000e+00   1.0062852e+00
   1.4310000e+00   1.0056913e+00   0.0000000e+00   1.0056913e+00
   1.4320000e+00   1.0050947e+00   0.0000000e+00   1.0050947e+00
   1.4330000e+00   1.0044952e+00   0.0000000e+00   1.0044952e+00
   1.4340000e+00   1.0038929e+00   0.0000000e+00   1.0038929e+00
   1.4350000e+00   1.0032878e+00   0.0000000e+00   1.0032878e+00
   1.4360000e+00   1.0026799e+00   0.0000000e+00   1.0026799e+00
   1.4370000e+00   1.0020692e+00   0.0000000e+00   1.0020692e+00
   1.4380000e+00   1.0014556e+00   0.0000000e+00   1.0014556e+00
   1.4390000e+00   1.0008393e+00   0.0000000e+00   1.0008393e+00
   1.4400000e+00   1.0002202e+00   0.0000000e+00   1.0002202e+00
   1.4410000e+00   9.9959830e-01   0.0000000e+00   9.9959830e-01
   1.4420000e+00   9.9897362e-01   0.0000000e+00   9.9897362e-01
   1.4430000e+00   9.9834615e-01   0.0000000e+00   9.9834615e-01
   1.4440000e+00   9.9771592e-01   0.0000000e+00   9.9771592e-01
   1.4450000e+00   9.9708291e-01   0.0000000e+00   9.9708291e-01
   1.4460000e+00   9.9644713e-01   0.0000000e+00   9.9644713e-01
   1.4470000e+00   9.9580859e-01   0.0000000e+00   9.9580859e-01
   1.4480000e+00   9.9516729e-01   0.0000000e+00   9.9516729e-01
   1.4490000e+00   9.9452324e-01   0.0000000e+00   9.9452324e-01
   1.4500000e+00   9.9387643e-01   0.0000000e+00   9.9387643e-01
   1.4510000e+00   9.9322688e-01   0.0000000e+00   9.9322688e-01
   1.4520000e+00   9.9257459e-01   0.0000000e+00   9.9257459e-01
   1.4530000e+00   9.9191956e-01   0.0000000e+00   9.9191956e-01
   1.4540000e+00   9.9126180e-01   0.0000000e+00   9.9126180e-01
   1.4550000e+00   9.9060131e-01   0.0000000e+00   9.9060131e-01
   1.4560000e+00   9.8993809e-01   0.0000000e+00   9.8993809e-01
   1.4570000e+00   9.8927215e-01   0.0000000e+00   9.8927215e-01
   1.4580000e+00   9.8860350e-01   0.0000000e+00   9.8860350e-01
   1.4590000e+00   9.8793213e-01   0.0000000e+00   9.8793213e-01
   1.4600000e+00   9.8725806e-01   0.0000000e+00   9.8725806e-01
   1.4610000e+00   9.8658128e-01   0.0000000e+00   9.8658128e-01
   1.4620000e+00   9.8590180e-01   0.0000000e+00   9.8590180e-01
   1.4630000e+00   9.8521963e-01   0.0000000e+00   9.8521963e-01
   1.4640000e+00   9.8453477e-01   0.0000000e+00   9.8453477e-01
   1.4650000e+00   9.8384722e-01   0.0000000e+00   9.8384722e-01
   1.4660000e+00   9.8315699e-01   0.0000000e+00   9.8315699e-01
   1.4670000e+00   9.8246408e-01   0.0000000e+00   9.8246408e-01
   1.4680000e+00   9.8176850e-01   0.0000000e+00   9.8176850e-01
   1.4690000e+00   9.8107026e-01   0.0000000e+00   9.8107026e-01
   1.4700000e+00   9.8036934e-01   0.0000000e+00   9.8036934e-01
   1.4710000e+00   9.7966577e-01   0.0000000e+00   9.7966577e-01
   1.4720000e+00   9.7895954e-01   0.0000000e+00   9.7895954e-01
   1.4730000e+00   9.7825066e-01   0.0000000e+00   9.7825066e-01
   1.4740000e+00   9.7753913e-01   0.0000000e+00   9.7753913e-01
   1.4750000e+00   9.7682497e-01   0.0000000e+00   9.7682497e-01
   1.4760000e+00   9.7610816e-01   0.0000000e+00   9.7610816e-01
   1.4770000e+00   9.7538872e-01   0.0000000e+00   9.7538872e-01
   1.4780000e+00   9.7466665e-01   0.0000000e+00   9.7466665e-01
   1.4790000e+00   9.7394196e-01   0.0000000e+00   9.7394196e-01
   1.4800000e+00   9.7321465e-01   0.0000000e+00   9.7321465e-01
   1.4810000e+00   9.7248472e-01   0.0000000e+00   9.7248472e-01
   1.4820000e+00   9.7175219e-01   0.0000000e+00   9.7175219e-01
   1.4830000e+00   9.7101704e-01   0.0000000e+00   9.7101704e-01
   1.4840000e+00   9.7027930e-01   0.0000000e+00   9.7027930e-01
   1.4850000e+00   9.6953895e-01   0.0000000e+00   9.6953895e-01
   1.4860000e+00   9.6879602e-01   0.0000000e+00   9.6879602e-01
   1.4870000e+00   9.6805049e-01   0.0000000e+00   9.6805049e-01
   1.4880000e+00   9.6730239e-01   0.0000000e+00   9.6730239e-01
   1.4890000e+00   9.6655170e-01   0.0000000e+00   9.6655170e-01
   1.4900000e+00   9.6579844e-01   0.0000000e+00   9.6579844e-01
   1.4910000e+00   9.6504261e-01   0.0000000e+00   9.6504261e-01
   1.4920000e+00   9.6428421e-01   0.0000000e+00   9.6428421e-01
   1.4930000e+00   9.6352326e-01   0.0000000e+00   9.6352326e-01
   1.4940000e+00   9.6275974e-01   0.0000000e+00   9.6275974e-01
   1.4950000e+00   9.6199368e-01   0.0000000e+00   9.6199368e-01
   1.4960000e+00   9.6122507e-01   0.0000000e+00   9.6122507e-01
   1.4970000e+00   9.6045392e-01   0.0000000e+00   9.6045392e-01
   1.4980000e+00   9.5968023e-01   0.0000000e+00   9.5968023e-01
   1.4990000e+00   9.5890401e-01   0.0000000e+00   9.5890401e-01
   1.5000000e+00   9.5812525e-01   0.0000000e+00   9.5812525e-01
   1.5010000e+00   9.5734398e-01   0.0000000e+00   9.5734398e-01
   1.5020000e+00   9.5656019e-01   0.0000000e+00   9.5656019e-01
   1.5030000e+00   9.5577388e-01   0.0000000e+00   9.5577388e-01
   1.5040000e+00   9.5498506e-01   0.0000000e+00   9.5498506e-01
   1.5050000e+00   9.5419374e-01   0.0000000e+00   9.5419374e-01
   1.5060000e+00   9.5339992e-01   0.0000000e+00   9.5339992e-01
   1.5070000e+00   9.5260360e-01   0.0000000e+00   9.5260360e-01
   1.5080000e+00   9.5180480e-01   0.0000000e+00   9.5180480e-01
   1.5090000e+00   9.5100350e-01   0.0000000e+00   9.5100350e-01
   1.5100000e+00   9.5019973e-01   0.0000000e+00   9.5019973e-01
   1.5110000e+00   9.4939348e-01   0.0000000e+00   9.4939348e-01
   1.5120000e+00   9.4858476e-01   0.0000000e+00   9.4858476e-01
   1.5130000e+00   9.4777357e-01   0.0000000e+00   9.4777357e-01
   1.5140000e+00   9.4695992e-01   0.0000000e+00   9.4695992e-01
   1.5150000e+00   9.4614381e-01   0.0000000e+00   9.4614381e-01
   1.5160000e+00   9.4532525e-01   0.0000000e+00   9.4532525e-01
   1.5170000e+00   9.4450424e-01   0.0000000e+00   9.4450424e-01
   1.5180000e+00   9.4368079e-01   0.0000000e+00   9.4368079e-01
   1.5190000e+00   9.4285491e-01   0.0000000e+00   9.4285491e-01
   1.5200000e+00   9.4202659e-01   0.0000000e+00   9.4202659e-01
   1.5210000e+00   9.4119584e-01   0.0000000e+00   9.4119584e-01
   1.5220000e+00   9.4036266e-01   0.0000000e+00   9.4036266e-01
   1.5230000e+00   9.3952707e-01   0.0000000e+00   9.3952707e-01
   1.5240000e+00   9.3868907e-01   0.0000000e+00   9.3868907e-01
   1.5250000e+00   9.3784865e-01   0.0000000e+00   9.3784865e-01
   1.5260000e+00   9.3700584e-01   0.0000000e+00   9.3700584e-01
   1.5270000e+00   9.3616062e-01   0.0000000e+00   9.3616062e-01
   1.5280000e+00   9.3531301e-01   0.0000000e+00   9.3531301e-01
   1.5290000e+00   9.3446301e-01   0.0000000e+00   9.3446301e-01
   1.5300000e+00   9.3361062e-01   0.0000000e+00   9.3361062e-01
   1.5310000e+00   9.3275586e-01   0.0000000e+00   9.3275586e-01
   1.5320000e+00   9.3189872e-01   0.0000000e+00   9.3189872e-01
   1.5330000e+00   9.3103921e-01   0.0000000e+00   9.3103921e-01
   1.5340000e+00   9.3017734e-01   0.0000000e+00   9.3017734e-01
   1.5350000e+00   9.2931311e-01   0.0000000e+00   9.2931311e-01
   1.5360000e+00   9.2844653e-01   0.0000000e+00   9.2844653e-01
   1.5370000e+00   9.2757759e-01   0.0000000e+00   9.2757759e-01
   1.5380000e+00   9.2670631e-01   0.0000000e+00   9.2670631e-01
   1.5390000e+00   9.2583269e-01   0.0000000e+00   9.2583269e-01
   1.5400000e+00   9.2495673e-01   0.0000000e+00   9.2495673e-01
   1.5410000e+00   9.2407845e-01   0.0000000e+00   9.2407845e-01
   1.5420000e+00   9.2319784e-01   0.0000000e+00   9.2319784e-01
   1.5430000e+00   9.2231491e-01   0.0000000e+00   9.2231491e-01
   1.5440000e+00   9.2142967e-01   0.0000000e+00   9.2142967e-01
   1.5450000e+00   9.2054211e-01   0.0000000e+00   9.2054211e-01
   1.5460000e+00   9.1965226e-01   0.0000000e+00   9.1965226e-01
   1.5470000e+00   9.1876010e-01   0.0000000e+00   9.1876010e-01
   1.5480000e+00   9.1786565e-01   0.0000000e+00   9.1786565e-01
   1.5490000e+00   9.1696891e-01   0.0000000e+00   9.1696891e-01
   1.5500000e+00   9.1606988e-01   0.0000000e+00   9.1606988e-01
   1.5510000e+00   9.1516858e-01   0.0000000e+00   9.1516858e-01
   1.5520000e+00   9.1426500e-01   0.0000000e+00   9.1426500e-01
   1.5530000e+00   9.1335915e-01   0.0000000e+00   9.1335915e-01
   1.5540000e+00   9.1245104e-01   0.0000000e+00   9.1245104e-01
   1.5550000e+00   9.1154067e-01   0.0000000e+00   9.1154067e-01
   1.5560000e+00   9.1062804e-01   0.0000000e+00   9.1062804e-01
   1.5570000e+00   9.0971317e-01   0.0000000e+00   9.0971317e-01
   1.5580000e+00   9.0879606e-01   0.0000000e+00   9.0879606e-01
   1.5590000e+00   9.0787670e-01   0.0000000e+00   9.0787670e-01
   1.5600000e+00   9.0695511e-01   0.0000000e+00   9.0695511e-01
   1.5610000e+00   9.0603130e-01   0.0000000e+00   9.0603130e-01
   1.5620000e+00   9.0510526e-01   0.0000000e+00   9.0510526e-01
   1.5630000e+00   9.0417700e-01   0.0000000e+00   9.0417700e-01
   1.5640000e+00   9.0324654e-01   0.0000000e+00   9.0324654e-01
   1.5650000e+00   9.0231386e-01   0.0000000e+00   9.0231386e-01
   1.5660000e+00   9.0137898e-01   0.0000000e+00   9.0137898e-01
   1.5670000e+00   9.0044191e-01   0.0000000e+00   9.0044191e-01
   1.5680000e+00   8.9950264e-01   0.0000000e+00   8.9950264e-01
   1.5690000e+00   8.9856119e-01   0.0000000e+00   8.9856119e-01
   1.5700000e+00   8.9761756e-01   0.0000000e+00   8.9761756e-01
   1.5710000e+00   8.9667175e-01   0.0000000e+00   8.9667175e-01
   1.5720000e+00   8.9572377e-01   0.0000000e+00   8.9572377e-01
   1.5730000e+00   8.9477362e-01   0.0000000e+00   8.9477362e-01
   1.5740000e+00   8.9382131e-01   0.0000000e+00   8.9382131e-01
   1.5750000e+00   8.9286685e-01   0.0000000e+00   8.9286685e-01
   1.5760000e+00   8.9191024e-01   0.0000000e+00   8.9191024e-01
   1.5770000e+00   8.9095149e-01   0.0000000e+00   8.9095149e-01
   1.5780000e+00   8.8999059e-01   0.0000000e+00   8.8999059e-01
   1.5790000e+00   8.8902756e-01   0.0000000e+00   8.8902756e-01
   1.5800000e+00   8.8806241e-01   0.0000000e+00   8.8806241e-01
   1.5810000e+00   8.8709513e-01   0.0000000e+00   8.8709513e-01
   1.5820000e+00   8.8612573e-01   0.0000000e+00   8.8612573e-01
   1.5830000e+00   8.8515422e-01   0.0000000e+00   8.8515422e-01
   1.5840000e+00   8.8418060e-01   0.0000000e+00   8.8418060e-01
   1.5850000e+00   8.8320488e-01   0.0000000e+00   8.8320488e-01
   1.5860000e+00   8.8222706e-01   0.0000000e+00   8.8222706e-01
   1.5870000e+00   8.8124715e-01   0.0000000e+00   8.8124715e-01
   1.5880000e+00   8.8026516e-01   0.0000000e+00   8.8026516e-01
   1.5890000e+00   8.7928108e-01   0.0000000e+00   8.7928108e-01
   1.5900000e+00   8.7829494e-01   0.0000000e+00   8.7829494e-01
   1.5910000e+00   8.7730672e-01   0.0000000e+00   8.7730672e-01
   1.5920000e+00   8.7631643e-01   0.0000000e+00   8.7631643e-01
   1.5930000e+00   8.7532409e-01   0.0000000e+00   8.7532409e-01
   1.5940000e+00   8.7432969e-01   0.0000000e+00   8.7432969e-01
   1.5950000e+00   8.7333325e-01   0.0000000e+00   8.7333325e-01
   1.5960000e+00   8.7233476e-01   0.0000000e+00   8.7233476e-01
   1.5970000e+00   8.7133423e-01   0.0000000e+00   8.7133423e-01
   1.5980000e+00   8.7033168e-01   0.0000000e+00   8.7033168e-01
   1.5990000e+00   8.6932709e-01   0.0000000e+00   8.6932709e-01
   1.6000000e+00   8.6832049e-01   0.0000000e+00   8.6832049e-01
   1.6010000e+00   8.6731187e-01   0.0000000e+00   8.6731187e-01
   1.6020000e+00   8.6630124e-01   0.0000000e+00   8.6630124e-01
   1.6030000e+00   8.6528860e-01   0.0000000e+00   8.6528860e-01
   1.6040000e+00   8.6427397e-01   0.0000000e+00   8.6427397e-01
   1.6050000e+00   8.6325734e-01   0.0000000e+00   8.6325734e-01
   1.6060000e+00   8.6223872e-01   0.0000000e+00   8.6223872e-01
   1.6070000e+00   8.6121812e-01   0.0000000e+00   8.6121812e-01
   1.6080000e+00   8.6019554e-01   0.0000000e+00   8.6019554e-01
   1.6090000e+00   8.5917099e-01   0.0000000e+00   8.5917099e-01
   1.6100000e+00   8.5814448e-01   0.0000000e+00   8.5814448e-01
   1.6110000e+00   8.5711600e-01   0.0000000e+00   8.5711600e-01
   1.6120000e+00   8.5608557e-01   0.0000000e+00   8.5608557e-01
   1.6130000e+00   8.5505319e-01   0.0000000e+00   8.5505319e-01
   1.6140000e+00   8.5401886e-01   0.0000000e+00   8.5401886e-01
   1.6150000e+00   8.5298260e-01   0.0000000e+00   8.5298260e-01
   1.6160000e+00   8.5194440e-01   0.0000000e+00   8.5194440e-01
   1.6170000e+00   8.5090427e-01   0.0000000e+00   8.5090427e-01
   1.6180000e+00   8.4986223e-01   0.0000000e+00   8.4986223e-01
   1.6190000e+00   8.4881826e-01   0.0000000e+00   8.4881826e-01
   1.6200000e+00   8.4777239e-01   0.0000000e+00   8.4777239e-01
   1.6210000e+00   8.4672461e-01   0.0000000e+00   8.4672461e-01
   1.6220000e+00   8.4567492e-01   0.0000000e+00   8.4567492e-01
   1.6230000e+00   8.4462335e-01   0.0000000e+00   8.4462335e-01
   1.6240000e+00   8.4356989e-01   0.0000000e+00   8.4356989e-01
   1.6250000e+00   8.4251454e-01   0.0000000e+00   8.4251454e-01
   1.6260000e+00   8.4145732e-01   0.0000000e+00   8.4145732e-01
   1.6270000e+00   8.4039822e-01   0.0000000e+00   8.4039822e-01
   1.6280000e+00   8.3933726e-01   0.0000000e+00   8.3933726e-01
   1.6290000e+00   8.3827443e-01   0.0000000e+00   8.3827443e-01
   1.6300000e+00   8.3720976e-01   0.0000000e+00   8.3720976e-01
   1.6310000e+00   8.3614323e-01   0.0000000e+00   8.3614323e-01
   1.6320000e+00   8.3507486e-01   0.0000000e+00   8.3507486e-01
   1.6330000e+00   8.3400465e-01   0.0000000e+00   8.3400465e-01
   1.6340000e+00   8.3293261e-01   0.0000000e+00   8.3293261e-01
   1.6350000e+00   8.3185874e-01   0.0000000e+00   8.3185874e-01
   1.6360000e+00   8.3078305e-01   0.0000000e+00   8.3078305e-01
   1.6370000e+00   8.2970555e-01   0.0000000e+00   8.2970555e-01
   1.6380000e+00   8.2862623e-01   0.0000000e+00   8.2862623e-01
   1.6390000e+00   8.2754512e-01   0.0000000e+00   8.2754512e-01
   1.6400000e+00   8.2646220e-01   0.0000000e+00   8.2646220e-01
   1.6410000e+00   8.2537749e-01   0.0000000e+00   8.2537749e-01
   1.6420000e+00   8.2429100e-01   0.0000000e+00   8.2429100e-01
   1.6430000e+00   8.2320272e-01   0.0000000e+00   8.2320272e-01
   1.6440000e+00   8.2211267e-01   0.0000000e+00   8.2211267e-01
   1.6450000e+00   8.2102084e-01   0.0000000e+00   8.2102084e-01
   1.6460000e+00   8.1992726e-01   0.0000000e+00   8.1992726e-01
   1.6470000e+00   8.1883191e-01   0.0000000e+00   8.1883191e-01
   1.6480000e+00   8.1773482e-01   0.0000000e+00   8.1773482e-01
   1.6490000e+00   8.1663597e-01   0.0000000e+00   8.1663597e-01
   1.6500000e+00   8.1553539e-01   0.0000000e+00   8.1553539e-01
   1.6510000e+00   8.1443307e-01   0.0000000e+00   8.1443307e-01
   1.6520000e+00   8.1332902e-01   0.0000000e+00   8.1332902e-01
   1.6530000e+00   8.1222324e-01   0.0000000e+00   8.1222324e-01
   1.6540000e+00   8.1111575e-01   0.0000000e+00   8.1111575e-01
   1.6550000e+00   8.1000655e-01   0.0000000e+00   8.1000655e-01
   1.6560000e+00   8.0889564e-01   0.0000000e+00   8.0889564e-01
   1.6570000e+00   8.0778302e-01   0.0000000e+00   8.0778302e-01
   1.6580000e+00   8.0666872e-01   0.0000000e+00   8.0666872e-01
   1.6590000e+00   8.0555272e-01   0.0000000e+00   8.0555272e-01
   1.6600000e+00   8.0443504e-01   0.0000000e+00   8.0443504e-01
   1.6610000e+00   8.0331569e-01   0.0000000e+00   8.0331569e-01
   1.6620000e+00   8.0219466e-01   0.0000000e+00   8.0219466e-01
   1.6630000e+00   8.0107197e-01   0.0000000e+00   8.0107197e-01
   1.6640000e+00   7.9994761e-01   0.0000000e+00   7.9994761e-01
   1.6650000e+00   7.9882161e-01   0.0000000e+00   7.9882161e-01
   1.6660000e+00   7.9769395e-01   0.0000000e+00   7.9769395e-01
   1.6670000e+00   7.9656465e-01   0.0000000e+00   7.9656465e-01
   1.6680000e+00   7.9543372e-01   0.0000000e+00   7.9543372e-01
   1.6690000e+00   7.9430115e-01   0.0000000e+00   7.9430115e-01
   1.6700000e+00   7.9316696e-01   0.0000000e+00   7.9316696e-01
   1.6710000e+00   7.9203115e-01   0.0000000e+00   7.9203115e-01
   1.6720000e+00   7.9089373e-01   0.0000000e+00   7.9089373e-01
   1.6730000e+00   7.8975470e-01   0.0000000e+00   7.8975470e-01
   1.6740000e+00   7.8861407e-01   0.0000000e+00   7.8861407e-01
   1.6750000e+00   7.8747184e-01   0.0000000e+00   7.8747184e-01
   1.6760000e+00   7.8632802e-01   0.0000000e+00   7.8632802e-01
   1.6770000e+00   7.8518262e-01   0.0000000e+00   7.8518262e-01
   1.6780000e+00   7.8403565e-01   0.0000000e+00   7.8403565e-01
   1.6790000e+00   7.8288710e-01   0.0000000e+00   7.8288710e-01
   1.6800000e+00   7.8173698e-01   0.0000000e+00   7.8173698e-01
   1.6810000e+00   7.8058530e-01   0.0000000e+00   7.8058530e-01
   1.6820000e+00   7.7943207e-01   0.0000000e+00   7.7943207e-01
   1.6830000e+00   7.7827729e-01   0.0000000e+00   7.7827729e-01
   1.6840000e+00   7.7712097e-01   0.0000000e+00   7.7712097e-01
   1.6850000e+00   7.7596312e-01   0.0000000e+00   7.7596312e-01
   1.6860000e+00   7.7480373e-01   0.0000000e+00   7.7480373e-01
   1.6870000e+00   7.7364282e-01   0.0000000e+00   7.7364282e-01
   1.6880000e+00   7.7248038e-01   0.0000000e+00   7.7248038e-01
   1.6890000e+00   7.7131644e-01   0.0000000e+00   7.7131644e-01
   1.6900000e+00   7.7015099e-01   0.0000000e+00   7.7015099e-01
   1.6910000e+00   7.6898404e-01   0.0000000e+00   7.6898404e-01
   1.6920000e+00   7.6781560e-01   0.0000000e+00   7.6781560e-01
   1.6930000e+00   7.6664566e-01   0.0000000e+00   7.6664566e-01
   1.6940000e+00   7.6547425e-01   0.0000000e+00   7.6547425e-01
   1.6950000e+00   7.6430135e-01   0.0000000e+00   7.6430135e-01
   1.6960000e+00   7.6312699e-01   0.0000000e+00   7.6312699e-01
   1.6970000e+00   7.6195116e-01   0.0000000e+00   7.6195116e-01
   1.6980000e+00   7.6077387e-01   0.0000000e+00   7.6077387e-01
   1.6990000e+00   7.5959513e-01   0.0000000e+00   7.5959513e-01
   1.7000000e+00   7.5841494e-01   0.0000000e+00   7.5841494e-01
   1.7010000e+00   7.5723332e-01   0.0000000e+00   7.5723332e-01
   1.7020000e+00   7.5605025e-01   0.0000000e+00   7.5605025e-01
   1.7030000e+00   7.5486576e-01   0.0000000e+00   7.5486576e-01
   1.7040000e+00   7.5367985e-01   0.0000000e+00   7.5367985e-01
   1.7050000e+00   7.5249252e-01   0.0000000e+00   7.5249252e-01
   1.7060000e+00   7.5130378e-01   0.0000000e+00   7.5130378e-01
   1.7070000e+00   7.5011363e-01   0.0000000e+00   7.5011363e-01
   1.7080000e+00   7.4892209e-01   0.0000000e+00   7.4892209e-01
   1.7090000e+00   7.4772915e-01   0.0000000e+00   7.4772915e-01
   1.7100000e+00   7.4653483e-01   0.0000000e+00   7.4653483e-01
   1.7110000e+00   7.4533913e-01   0.0000000e+00   7.4533913e-01
   1.7120000e+00   7.4414205e-01   0.0000000e+00   7.4414205e-01
   1.7130000e+00   7.4294361e-01   0.0000000e+00   7.4294361e-01
   1.7140000e+00   7.4174380e-01   0.0000000e+00   7.4174380e-01
   1.7150000e+00   7.4054263e-01   0.0000000e+00   7.4054263e-01
   1.7160000e+00   7.3934012e-01   0.0000000e+00   7.3934012e-01
   1.7170000e+00   7.3813626e-01   0.0000000e+00   7.3813626e-01
   1.7180000e+00   7.3693107e-01   0.0000000e+00   7.3693107e-01
   1.7190000e+00   7.3572454e-01   0.0000000e+00   7.3572454e-01
   1.7200000e+00   7.3451669e-01   0.0000000e+00   7.3451669e-01
   1.7210000e+00   7.3330752e-01   0.0000000e+00   7.3330752e-01
   1.7220000e+00   7.3209703e-01   0.0000000e+00   7.3209703e-01
   1.7230000e+00   7.3088524e-01   0.0000000e+00   7.3088524e-01
   1.7240000e+00   7.2967215e-01   0.0000000e+00   7.2967215e-01
   1.7250000e+00   7.2845776e-01   0.0000000e+00   7.2845776e-01
   1.7260000e+00   7.2724208e-01   0.0000000e+00   7.2724208e-01
   1.7270000e+00   7.2602512e-01   0.0000000e+00   7.2602512e-01
   1.7280000e+00   7.2480688e-01   0.0000000e+00   7.2480688e-01
   1.7290000e+00   7.2358738e-01   0.0000000e+00   7.2358738e-01
   1.7300000e+00   7.2236661e-01   0.0000000e+00   7.2236661e-01
   1.7310000e+00   7.2114458e-01   0.0000000e+00   7.2114458e-01
   1.7320000e+00   7.1992129e-01   0.0000000e+00   7.1992129e-01
   1.7330000e+00   7.1869677e-01   0.0000000e+00   7.1869677e-01
   1.7340000e+00   7.1747100e-01   0.0000000e+00   7.1747100e-01
   1.7350000e+00   7.1624400e-01   0.0000000e+00   7.1624400e-01
   1.7360000e+00   7.1501577e-01   0.0000000e+00   7.1501577e-01
   1.7370000e+00   7.1378632e-01   0.0000000e+00   7.1378632e-01
   1.7380000e+00   7.1255565e-01   0.0000000e+00   7.1255565e-01
   1.7390000e+00   7.1132378e-01   0.0000000e+00   7.1132378e-01
   1.7400000e+00   7.1009070e-01   0.0000000e+00   7.1009070e-01
   1.7410000e+00   7.0885643e-01   0.0000000e+00   7.0885643e-01
   1.7420000e+00   7.0762097e-01   0.0000000e+00   7.0762097e-01
   1.7430000e+00   7.0638432e-01   0.0000000e+00   7.0638432e-01
   1.7440000e+00   7.0514649e-01   0.0000000e+00   7.0514649e-01
   1.7450000e+00   7.0390750e-01   0.0000000e+00   7.0390750e-01
   1.7460000e+00   7.0266733e-01   0.0000000e+00   7.0266733e-01
   1.7470000e+00   7.0142601e-01   0.0000000e+00   7.0142601e-01
   1.7480000e+00   7.0018354e-01   0.0000000e+00   7.0018354e-01
   1.7490000e+00   6.9893991e-01   0.0000000e+00   6.9893991e-01
   1.7500000e+00   6.9769515e-01   0.0000000e+00   6.9769515e-01
   1.7510000e+00   6.9644925e-01   0.0000000e+00   6.9644925e-01
   1.7520000e+00   6.9520223e-01   0.0000000e+00   6.9520223e-01
   1.7530000e+00   6.9395408e-01   0.0000000e+00   6.9395408e-01
   1.7540000e+00   6.9270481e-01   0.0000000e+00   6.9270481e-01
   1.7550000e+00   6.9145444e-01   0.0000000e+00   6.9145444e-01
   1.7560000e+00   6.9020296e-01   0.0000000e+00   6.9020296e-01
   1.7570000e+00   6.8895039e-01   0.0000000e+00   6.8895039e-01
   1.7580000e+00   6.8769672e-01   0.0000000e+00   6.8769672e-01
   1.7590000e+00   6.8644197e-01   0.0000000e+00   6.8644197e-01
   1.7600000e+00   6.8518614e-01   0.0000000e+00   6.8518614e-01
   1.7610000e+00   6.8392924e-01   0.0000000e+00   6.8392924e-01
   1.7620000e+00   6.8267128e-01   0.0000000e+00   6.8267128e-01
   1.7630000e+00   6.8141225e-01   0.0000000e+00   6.8141225e-01
   1.7640000e+00   6.8015217e-01   0.0000000e+00   6.8015217e-01
   1.7650000e+00   6.7889105e-01   0.0000000e+00   6.7889105e-01
   1.7660000e+00   6.7762888e-01   0.0000000e+00   6.7762888e-01
   1.7670000e+00   6.7636568e-01   0.0000000e+00   6.7636568e-01
   1.7680000e+00   6.7510145e-01   0.0000000e+00   6.7510145e-01
   1.7690000e+00   6.7383619e-01   0.0000000e+00   6.7383619e-01
   1.7700000e+00   6.7256993e-01   0.0000000e+00   6.7256993e-01
   1.7710000e+00   6.7130265e-01   0.0000000e+00   6.7130265e-01
   1.7720000e+00   6.7003437e-01   0.0000000e+00   6.7003437e-01
   1.7730000e+00   6.6876509e-01   0.0000000e+00   6.6876509e-01
   1.7740000e+00   6.6749482e-01   0.0000000e+00   6.6749482e-01
   1.7750000e+00   6.6622357e-01   0.0000000e+00   6.6622357e-01
   1.7760000e+00   6.6495134e-01   0.0000000e+00   6.6495134e-01
   1.7770000e+00   6.6367814e-01   0.0000000e+00   6.6367814e-01
   1.7780000e+00   6.6240397e-01   0.0000000e+00   6.6240397e-01
   1.7790000e+00   6.6112885e-01   0.0000000e+00   6.6112885e-01
   1.7800000e+00   6.5985277e-01   0.0000000e+00   6.5985277e-01
   1.7810000e+00   6.5857574e-01   0.0000000e+00   6.5857574e-01
   1.7820000e+00   6.5729777e-01   0.0000000e+00   6.5729777e-01
   1.7830000e+00   6.5601887e-01   0.0000000e+00   6.5601887e-01
   1.7840000e+00   6.5473905e-01   0.0000000e+00   6.5473905e-01
   1.7850000e+00   6.5345830e-01   0.0000000e+00   6.5345830e-01
   1.7860000e+00   6.5217664e-01   0.0000000e+00   6.5217664e-01
   1.7870000e+00   6.5089406e-01   0.0000000e+00   6.5089406e-01
   1.7880000e+00   6.4961059e-01   0.0000000e+00   6.4961059e-01
   1.7890000e+00   6.4832622e-01   0.0000000e+00   6.4832622e-01
   1.7900000e+00   6.4704096e-01   0.0000000e+00   6.4704096e-01
   1.7910000e+00   6.4575482e-01   0.0000000e+00   6.4575482e-01
   1.7920000e+00   6.4446780e-01   0.0000000e+00   6.4446780e-01
   1.7930000e+00   6.4317991e-01   0.0000000e+00   6.4317991e-01
   1.7940000e+00   6.4189116e-01   0.0000000e+00   6.4189116e-01
   1.7950000e+00   6.4060155e-01   0.0000000e+00   6.4060155e-01
   1.7960000e+00   6.3931108e-01   0.0000000e+00   6.3931108e-01
   1.7970000e+00   6.3801978e-01   0.0000000e+00   6.3801978e-01
   1.7980000e+00   6.3672763e-01   0.0000000e+00   6.3672763e-01
   1.7990000e+00   6.3543465e-01   0.0000000e+00   6.3543465e-01
   1.8000000e+00   6.3414084e-01   0.0000000e+00   6.3414084e-01
   1.8010000e+00   6.3284622e-01   0.0000000e+00   6.3284622e-01
   1.8020000e+00   6.3155078e-01   0.0000000e+00   6.3155078e-01
   1.8030000e+00   6.3025454e-01   0.0000000e+00   6.3025454e-01
   1.8040000e+00   6.2895749e-01   0.0000000e+00   6.2895749e-01
   1.8050000e+00   6.2765965e-01   0.0000000e+00   6.2765965e-01
   1.8060000e+00   6.2636103e-01   0.0000000e+00   6.2636103e-01
   1.8070000e+00   6.2506162e-01   0.0000000e+00   6.2506162e-01
   1.8080000e+00   6.2376143e-01   0.0000000e+00   6.2376143e-01
   1.8090000e+00   6.2246048e-01   0.0000000e+00   6.2246048e-01
   1.8100000e+00   6.2115877e-01   0.0000000e+00   6.2115877e-01
   1.8110000e+00   6.1985630e-01   0.0000000e+00   6.1985630e-01
   1.8120000e+00   6.1855308e-01   0.0000000e+00   6.1855308e-01
   1.8130000e+00   6.1724911e-01   0.0000000e+00   6.1724911e-01
   1.8140000e+00   6.1594442e-01   0.0000000e+00   6.1594442e-01
   1.8150000e+00   6.1463899e-01   0.0000000e+00   6.1463899e-01
   1.8160000e+00   6.1333283e-01   0.0000000e+00   6.1333283e-01
   1.8170000e+00   6.1202596e-01   0.0000000e+00   6.1202596e-01
   1.8180000e+00   6.1071838e-01   0.0000000e+00   6.1071838e-01
   1.8190000e+00   6.0941009e-01   0.0000000e+00   6.0941009e-01
   1.8200000e+00   6.0810111e-01   0.0000000e+00   6.0810111e-01
   1.8210000e+00   6.0679143e-01   0.0000000e+00   6.0679143e-01
   1.8220000e+00   6.0548107e-01   0.0000000e+00   6.0548107e-01
   1.8230000e+00   6.0417003e-01   0.0000000e+00   6.0417003e-01
   1.8240000e+00   6.0285831e-01   0.0000000e+00   6.0285831e-01
   1.8250000e+00   6.0154593e-01   0.0000000e+00   6.0154593e-01
   1.8260000e+00   6.0023289e-01   0.0000000e+00   6.0023289e-01
   1.8270000e+00   5.9891920e-01   0.0000000e+00   5.9891920e-01
   1.8280000e+00   5.9760486e-01   0.0000000e+00   5.9760486e-01
   1.8290000e+00   5.9628988e-01   0.0000000e+00   5.9628988e-01
   1.8300000e+00   5.9497426e-01   0.0000000e+00   5.9497426e-01
   1.8310000e+00   5.9365802e-01   0.0000000e+00   5.9365802e-01
   1.8320000e+00   5.9234116e-01   0.0000000e+00   5.9234116e-01
   1.8330000e+00   5.9102368e-01   0.0000000e+00   5.9102368e-01
   1.8340000e+00   5.8970559e-01   0.0000000e+00   5.8970559e-01
   1.8350000e+00   5.8838690e-01   0.0000000e+00   5.8838690e-01
   1.8360000e+00   5.8706762e-01   0.0000000e+00   5.8706762e-01
   1.8370000e+00   5.8574775e-01   0.0000000e+00   5.8574775e-01
   1.8380000e+00   5.8442729e-01   0.0000000e+00   5.8442729e-01
   1.8390000e+00   5.8310626e-01   0.0000000e+00   5.8310626e-01
   1.8400000e+00   5.8178466e-01   0.0000000e+00   5.8178466e-01
   1.8410000e+00   5.8046249e-01   0.0000000e+00   5.8046249e-01
   1.8420000e+00   5.7913977e-01   0.0000000e+00   5.7913977e-01
   1.8430000e+00   5.7781650e-01   0.0000000e+00   5.7781650e-01
   1.8440000e+00   5.7649268e-01   0.0000000e+00   5.7649268e-01
   1.8450000e+00   5.7516833e-01   0.0000000e+00   5.7516833e-01
