   1.0000000e-03  -6.7177667e-03  -5.0434903e-01   4.9763126e-01
   2.0000000e-03  -2.1166950e-02  -5.0946433e-01   4.8829738e-01
   3.0000000e-03  -8.3461920e-02  -5.1462747e-01   4.3116555e-01
   4.0000000e-03  -1.8801878e-01  -5.1984701e-01   3.3182823e-01
   5.0000000e-03  -3.2508483e-01  -5.2509409e-01   2.0000926e-01
   6.0000000e-03  -4.8147325e-01  -5.3008523e-01   4.8611978e-02
   7.0000000e-03  -6.4263867e-01  -5.3509489e-01  -1.0754378e-01
   8.0000000e-03  -7.9331754e-01  -5.4014514e-01  -2.5317240e-01
   9.0000000e-03  -9.1923724e-01  -5.4521850e-01  -3.7401875e-01
   1.0000000e-02  -1.0082898e+00  -5.5003623e-01  -4.5825353e-01
   1.1000000e-02  -1.0525112e+00  -5.5487996e-01  -4.9763126e-01
   1.2000000e-02  -1.0480689e+00  -5.5977149e-01  -4.8829738e-01
   1.3000000e-02  -9.9585493e-01  -5.6468937e-01  -4.3116555e-01
   1.4000000e-02  -9.0116608e-01  -5.6933785e-01  -3.3182823e-01
   1.5000000e-02  -7.7401972e-01  -5.7401047e-01  -2.0000926e-01
   1.6000000e-02  -6.2734155e-01  -5.7872957e-01  -4.8611978e-02
   1.7000000e-02  -4.7593004e-01  -5.8347382e-01   1.0754378e-01
   1.8000000e-02  -3.3476951e-01  -5.8794192e-01   2.5317240e-01
   1.9000000e-02  -2.1841557e-01  -5.9243432e-01   3.7401875e-01
   2.0000000e-02  -1.3872049e-01  -5.9697402e-01   4.5825353e-01
   2.1000000e-02  -1.0390769e-01  -6.0153896e-01   4.9763126e-01
   2.2000000e-02  -1.1752121e-01  -6.0581860e-01   4.8829738e-01
   2.3000000e-02  -1.7895707e-01  -6.1012262e-01   4.3116555e-01
   2.4000000e-02  -2.8264641e-01  -6.1447464e-01   3.3182823e-01
   2.5000000e-02  -4.1884264e-01  -6.1885189e-01   2.0000926e-01
   2.6000000e-02  -5.7432303e-01  -6.2293501e-01   4.8611978e-02
   2.7000000e-02  -7.3458627e-01  -6.2704249e-01  -1.0754378e-01
   2.8000000e-02  -8.8437096e-01  -6.3119856e-01  -2.5317240e-01
   2.9000000e-02  -1.0093985e+00  -6.3537974e-01  -3.7401875e-01
   3.0000000e-02  -1.0975118e+00  -6.3925827e-01  -4.5825353e-01
   3.1000000e-02  -1.1407923e+00  -6.4316106e-01  -4.9763126e-01
   3.2000000e-02  -1.1354103e+00  -6.4711287e-01  -4.8829738e-01
   3.3000000e-02  -1.0822552e+00  -6.5108960e-01  -4.3116555e-01
   3.4000000e-02  -9.8657899e-01  -6.5475075e-01  -3.3182823e-01
   3.5000000e-02  -8.5844764e-01  -6.5843838e-01  -2.0000926e-01
   3.6000000e-02  -7.1079130e-01  -6.6217932e-01  -4.8611978e-02
   3.7000000e-02  -5.5840482e-01  -6.6594860e-01   1.0754378e-01
   3.8000000e-02  -4.1623141e-01  -6.6940381e-01   2.5317240e-01
   3.9000000e-02  -2.9886004e-01  -6.7287879e-01   3.7401875e-01
   4.0000000e-02  -2.1814100e-01  -6.7639453e-01   4.5825353e-01
   4.1000000e-02  -1.8229258e-01  -6.7992384e-01   4.9763126e-01
   4.2000000e-02  -1.9481382e-01  -6.8311121e-01   4.8829738e-01
   4.3000000e-02  -2.5516264e-01  -6.8632820e-01   4.3116555e-01
   4.4000000e-02  -3.5779179e-01  -6.8962003e-01   3.3182823e-01
   4.5000000e-02  -4.9297318e-01  -6.9298244e-01   2.0000926e-01
   4.6000000e-02  -6.4746598e-01  -6.9607796e-01   4.8611978e-02
   4.7000000e-02  -8.0682793e-01  -6.9928415e-01  -1.0754378e-01
   4.8000000e-02  -9.5581456e-01  -7.0264216e-01  -2.5317240e-01
   4.9000000e-02  -1.0801517e+00  -7.0613300e-01  -3.7401875e-01
   5.0000000e-02  -1.1676457e+00  -7.0939215e-01  -4.5825353e-01
   5.1000000e-02  -1.2104070e+00  -7.1277573e-01  -4.9763126e-01
   5.2000000e-02  -1.2045954e+00  -7.1629803e-01  -4.8829738e-01
   5.3000000e-02  -1.1510814e+00  -7.1991585e-01  -4.3116555e-01
   5.4000000e-02  -1.0550638e+00  -7.2323552e-01  -3.3182823e-01
   5.5000000e-02  -9.2662918e-01  -7.2661992e-01  -2.0000926e-01
   5.6000000e-02  -7.7869764e-01  -7.3008566e-01  -4.8611978e-02
   5.7000000e-02  -6.2605190e-01  -7.3359568e-01   1.0754378e-01
   5.8000000e-02  -4.8359556e-01  -7.3676796e-01   2.5317240e-01
   5.9000000e-02  -3.6594495e-01  -7.3996369e-01   3.7401875e-01
   6.0000000e-02  -2.8494623e-01  -7.4319976e-01   4.5825353e-01
   6.1000000e-02  -2.4880589e-01  -7.4643715e-01   4.9763126e-01
   6.2000000e-02  -2.6098767e-01  -7.4928506e-01   4.8829738e-01
   6.3000000e-02  -3.2094489e-01  -7.5211044e-01   4.3116555e-01
   6.4000000e-02  -4.2310187e-01  -7.5493011e-01   3.3182823e-01
   6.5000000e-02  -5.5769571e-01  -7.5770497e-01   2.0000926e-01
   6.6000000e-02  -7.1145280e-01  -7.6006478e-01   4.8611978e-02
   6.7000000e-02  -8.6988956e-01  -7.6234578e-01  -1.0754378e-01
   6.8000000e-02  -1.0177305e+00  -7.6455814e-01  -2.5317240e-01
   6.9000000e-02  -1.1406825e+00  -7.6666380e-01  -3.7401875e-01
   7.0000000e-02  -1.2265245e+00  -7.6827100e-01  -4.5825353e-01
   7.1000000e-02  -1.2674109e+00  -7.6977963e-01  -4.9763126e-01
   7.2000000e-02  -1.2595232e+00  -7.7122580e-01  -4.8829738e-01
   7.3000000e-02  -1.2037439e+00  -7.7257833e-01  -4.3116555e-01
   7.4000000e-02  -1.1053025e+00  -7.7347423e-01  -3.3182823e-01
   7.5000000e-02  -9.7419108e-01  -7.7418183e-01  -2.0000926e-01
   7.6000000e-02  -8.2324976e-01  -7.7463779e-01  -4.8611978e-02
   7.7000000e-02  -6.6716947e-01  -7.7471325e-01   1.0754378e-01
   7.8000000e-02  -5.2077578e-01  -7.7394818e-01   2.5317240e-01
   7.9000000e-02  -3.9858975e-01  -7.7260850e-01   3.7401875e-01
   8.0000000e-02  -3.1239581e-01  -7.7064934e-01   4.5825353e-01
   8.1000000e-02  -2.7037056e-01  -7.6800182e-01   4.9763126e-01
   8.2000000e-02  -2.7600428e-01  -7.6430166e-01   4.8829738e-01
   8.3000000e-02  -3.2875611e-01  -7.5992166e-01   4.3116555e-01
   8.4000000e-02  -4.2310124e-01  -7.5492947e-01   3.3182823e-01
   8.5000000e-02  -5.4934625e-01  -7.4935551e-01   2.0000926e-01
   8.6000000e-02  -6.9433201e-01  -7.4294399e-01   4.8611978e-02
   8.7000000e-02  -8.4359603e-01  -7.3605225e-01  -1.0754378e-01
   8.8000000e-02  -9.8191091e-01  -7.2873851e-01  -2.5317240e-01
   8.9000000e-02  -1.0950250e+00  -7.2100625e-01  -3.7401875e-01
   9.0000000e-02  -1.1707973e+00  -7.1254376e-01  -4.5825353e-01
   9.1000000e-02  -1.2013540e+00  -7.0372271e-01  -4.9763126e-01
   9.2000000e-02  -1.1828973e+00  -6.9459990e-01  -4.8829738e-01
   9.3000000e-02  -1.1163516e+00  -6.8518601e-01  -4.3116555e-01
   9.4000000e-02  -1.0070326e+00  -6.7520432e-01  -3.3182823e-01
   9.5000000e-02  -8.6501314e-01  -6.6500389e-01  -2.0000926e-01
   9.6000000e-02  -7.0325320e-01  -6.5464123e-01  -4.8611978e-02
   9.7000000e-02  -5.3658294e-01  -6.4412672e-01   1.0754378e-01
   9.8000000e-02  -3.8001232e-01  -6.3318472e-01   2.5317240e-01
   9.9000000e-02  -2.4814442e-01  -6.2216316e-01   3.7401875e-01
   1.0000000e-01  -1.5286471e-01  -6.1111824e-01   4.5825353e-01
   1.0100000e-01  -1.0242907e-01  -6.0006033e-01   4.9763126e-01
   1.0200000e-01  -1.0041907e-01  -5.8871646e-01   4.8829738e-01
   1.0300000e-01  -1.4626630e-01  -5.7743185e-01   4.3116555e-01
   1.0400000e-01  -2.3443421e-01  -5.6626245e-01   3.3182823e-01
   1.0500000e-01  -3.5520955e-01  -5.5521880e-01   2.0000926e-01
   1.0600000e-01  -4.9544894e-01  -5.4406092e-01   4.8611978e-02
   1.0700000e-01  -6.4062950e-01  -5.3308572e-01  -1.0754378e-01
   1.0800000e-01  -7.7551169e-01  -5.2233929e-01  -2.5317240e-01
   1.0900000e-01  -8.8585282e-01  -5.1183407e-01  -3.7401875e-01
   1.1000000e-01  -9.5956524e-01  -5.0131171e-01  -4.5825353e-01
   1.1100000e-01  -9.8877494e-01  -4.9114367e-01  -4.9763126e-01
   1.1200000e-01  -9.6970855e-01  -4.8141117e-01  -4.8829738e-01
   1.1300000e-01  -9.0330365e-01  -4.7213809e-01  -4.3116555e-01
   1.1400000e-01  -7.9492925e-01  -4.6310102e-01  -3.3182823e-01
   1.1500000e-01  -6.5451481e-01  -4.5450555e-01  -2.0000926e-01
   1.1600000e-01  -4.9491079e-01  -4.4629881e-01  -4.8611978e-02
   1.1700000e-01  -3.3081904e-01  -4.3836281e-01   1.0754378e-01
   1.1800000e-01  -1.7717047e-01  -4.3034287e-01   2.5317240e-01
   1.1900000e-01  -4.8346788e-02  -4.2236553e-01   3.7401875e-01
   1.2000000e-01   4.3909471e-02  -4.1434406e-01   4.5825353e-01
   1.2100000e-01   9.1447948e-02  -4.0618332e-01   4.9763126e-01
   1.2200000e-01   9.0703042e-02  -3.9759434e-01   4.8829738e-01
   1.2300000e-01   4.2331799e-02  -3.8883376e-01   4.3116555e-01
   1.2400000e-01  -4.8126424e-02  -3.7995466e-01   3.3182823e-01
   1.2500000e-01  -1.7098680e-01  -3.7099605e-01   2.0000926e-01
   1.2600000e-01  -3.1322555e-01  -3.6183753e-01   4.8611978e-02
   1.2700000e-01  -4.6024325e-01  -3.5269947e-01  -1.0754378e-01
   1.2800000e-01  -5.9679636e-01  -3.4362396e-01  -2.5317240e-01
   1.2900000e-01  -7.0863376e-01  -3.3461502e-01  -3.7401875e-01
   1.3000000e-01  -7.8372920e-01  -3.2547567e-01  -4.5825353e-01
   1.3100000e-01  -8.1407787e-01  -3.1644661e-01  -4.9763126e-01
   1.3200000e-01  -7.9586559e-01  -3.0756821e-01  -4.8829738e-01
   1.3300000e-01  -7.3001976e-01  -2.9885420e-01  -4.3116555e-01
   1.3400000e-01  -6.2198229e-01  -2.9015405e-01  -3.3182823e-01
   1.3500000e-01  -4.8168630e-01  -2.8167704e-01  -2.0000926e-01
   1.3600000e-01  -3.2207554e-01  -2.7346357e-01  -4.8611978e-02
   1.3700000e-01  -1.5798383e-01  -2.6552761e-01   1.0754378e-01
   1.3800000e-01  -4.5471187e-03  -2.5771952e-01   2.5317240e-01
   1.3900000e-01   1.2377100e-01  -2.5024774e-01   3.7401875e-01
   1.4000000e-01   2.1510062e-01  -2.4315291e-01   4.5825353e-01
   1.4100000e-01   2.6118204e-01  -2.3644923e-01   4.9763126e-01
   1.4200000e-01   2.5830643e-01  -2.2999095e-01   4.8829738e-01
   1.4300000e-01   2.0718556e-01  -2.2398000e-01   4.3116555e-01
   1.4400000e-01   1.1337241e-01  -2.1845583e-01   3.3182823e-01
   1.4500000e-01  -1.3423803e-02  -2.1343306e-01   2.0000926e-01
   1.4600000e-01  -1.6015403e-01  -2.0876601e-01   4.8611978e-02
   1.4700000e-01  -3.1220602e-01  -2.0466225e-01  -1.0754378e-01
   1.4800000e-01  -4.5433802e-01  -2.0116562e-01  -2.5317240e-01
   1.4900000e-01  -5.7231184e-01  -1.9829309e-01  -3.7401875e-01
   1.5000000e-01  -6.5414797e-01  -1.9589444e-01  -4.5825353e-01
   1.5100000e-01  -6.9180368e-01  -1.9417242e-01  -4.9763126e-01
   1.5200000e-01  -6.8145443e-01  -1.9315705e-01  -4.8829738e-01
   1.5300000e-01  -6.2400888e-01  -1.9284333e-01  -4.3116555e-01
   1.5400000e-01  -5.2488774e-01  -1.9305950e-01  -3.3182823e-01
   1.5500000e-01  -3.9396932e-01  -1.9396007e-01  -2.0000926e-01
   1.5600000e-01  -2.4414766e-01  -1.9553568e-01  -4.8611978e-02
   1.5700000e-01  -9.0203674e-02  -1.9774745e-01   1.0754378e-01
   1.5800000e-01   5.2788959e-02  -2.0038344e-01   2.5317240e-01
   1.5900000e-01   1.7040719e-01  -2.0361156e-01   3.7401875e-01
   1.6000000e-01   2.5082262e-01  -2.0743091e-01   4.5825353e-01
   1.6100000e-01   2.8581460e-01  -2.1181666e-01   4.9763126e-01
   1.6200000e-01   2.7171737e-01  -2.1658001e-01   4.8829738e-01
   1.6300000e-01   2.0928128e-01  -2.2188427e-01   4.3116555e-01
   1.6400000e-01   1.0409910e-01  -2.2772913e-01   3.3182823e-01
   1.6500000e-01  -3.4076954e-02  -2.3408621e-01   2.0000926e-01
   1.6600000e-01  -1.9213642e-01  -2.4074840e-01   4.8611978e-02
   1.6700000e-01  -3.5543491e-01  -2.4789113e-01  -1.0754378e-01
   1.6800000e-01  -5.0868719e-01  -2.5551479e-01  -2.5317240e-01
   1.6900000e-01  -6.3761010e-01  -2.6359135e-01  -3.7401875e-01
   1.7000000e-01  -7.3016218e-01  -2.7190865e-01  -4.5825353e-01
   1.7100000e-01  -7.7827905e-01  -2.8064778e-01  -4.9763126e-01
   1.7200000e-01  -7.7810750e-01  -2.8981011e-01  -4.8829738e-01
   1.7300000e-01  -7.3053290e-01  -2.9936734e-01  -4.3116555e-01
   1.7400000e-01  -6.4092559e-01  -3.0909735e-01  -3.3182823e-01
   1.7500000e-01  -5.1920053e-01  -3.1919127e-01  -2.0000926e-01
   1.7600000e-01  -3.7826356e-01  -3.2965158e-01  -4.8611978e-02
   1.7700000e-01  -2.3290565e-01  -3.4044943e-01   1.0754378e-01
   1.7800000e-01  -9.8177570e-02  -3.5134997e-01   2.5317240e-01
   1.7900000e-01   1.1461626e-02  -3.6255712e-01   3.7401875e-01
   1.8000000e-01   8.4178890e-02  -3.7407464e-01   4.5825353e-01
   1.8100000e-01   1.1175839e-01  -3.8587288e-01   4.9763126e-01
   1.8200000e-01   9.0595432e-02  -3.9770195e-01   4.8829738e-01
   1.8300000e-01   2.1384691e-02  -4.0978086e-01   4.3116555e-01
   1.8400000e-01  -9.0286506e-02  -4.2211474e-01   3.3182823e-01
   1.8500000e-01  -2.3466368e-01  -4.3467294e-01   2.0000926e-01
   1.8600000e-01  -3.9857677e-01  -4.4718874e-01   4.8611978e-02
   1.8700000e-01  -5.6744180e-01  -4.5989802e-01  -1.0754378e-01
   1.8800000e-01  -7.2597973e-01  -4.7280733e-01  -2.5317240e-01
   1.8900000e-01  -8.5990360e-01  -4.8588486e-01  -3.7401875e-01
   1.9000000e-01  -9.5709933e-01  -4.9884580e-01  -4.5825353e-01
   1.9100000e-01  -1.0095754e+00  -5.1194413e-01  -4.9763126e-01
   1.9200000e-01  -1.0134852e+00  -5.2518787e-01  -4.8829738e-01
   1.9300000e-01  -9.6970945e-01  -5.3854390e-01  -4.3116555e-01
   1.9400000e-01  -8.8353680e-01  -5.5170856e-01  -3.3182823e-01
   1.9500000e-01  -7.6496397e-01  -5.6495471e-01  -2.0000926e-01
   1.9600000e-01  -6.2690377e-01  -5.7829179e-01  -4.8611978e-02
   1.9700000e-01  -4.8414153e-01  -5.9168531e-01   1.0754378e-01
   1.9800000e-01  -3.5164008e-01  -6.0481248e-01   2.5317240e-01
   1.9900000e-01  -2.4394654e-01  -6.1796529e-01   3.7401875e-01
   2.0000000e-01  -1.7290102e-01  -6.3115455e-01   4.5825353e-01
   2.0100000e-01  -1.4671309e-01  -6.4434435e-01   4.9763126e-01
   2.0200000e-01  -1.6889563e-01  -6.5719302e-01   4.8829738e-01
   2.0300000e-01  -2.3884584e-01  -6.7001139e-01   4.3116555e-01
   2.0400000e-01  -3.5098337e-01  -6.8281160e-01   3.3182823e-01
   2.0500000e-01  -4.9554702e-01  -6.9555627e-01   2.0000926e-01
   2.0600000e-01  -6.5927363e-01  -7.0788561e-01   4.8611978e-02
   2.0700000e-01  -8.2767233e-01  -7.2012855e-01  -1.0754378e-01
   2.0800000e-01  -9.8547080e-01  -7.3229840e-01  -2.5317240e-01
   2.0900000e-01  -1.1183751e+00  -7.4435633e-01  -3.7401875e-01
   2.1000000e-01  -1.2141792e+00  -7.5592571e-01  -4.5825353e-01
   2.1100000e-01  -1.2649836e+00  -7.6735230e-01  -4.9763126e-01
   2.1200000e-01  -1.2669478e+00  -7.7865038e-01  -4.8829738e-01
   2.1300000e-01  -1.2209453e+00  -7.8977978e-01  -4.3116555e-01
   2.1400000e-01  -1.1321770e+00  -8.0034877e-01  -3.3182823e-01
   2.1500000e-01  -1.0107274e+00  -8.1071815e-01  -2.0000926e-01
   2.1600000e-01  -8.6951497e-01  -8.2090300e-01  -4.8611978e-02
   2.1700000e-01  -7.2331809e-01  -8.3086187e-01   1.0754378e-01
   2.1800000e-01  -5.8701783e-01  -8.4019024e-01   2.5317240e-01
   2.1900000e-01  -4.7524289e-01  -8.4926164e-01   3.7401875e-01
   2.2000000e-01  -3.9983817e-01  -8.5809170e-01   4.5825353e-01
   2.2100000e-01  -3.6900659e-01  -8.6663786e-01   4.9763126e-01
   2.2200000e-01  -3.8618818e-01  -8.7448556e-01   4.8829738e-01
   2.2300000e-01  -4.5085273e-01  -8.8201829e-01   4.3116555e-01
   2.2400000e-01  -5.5742371e-01  -8.8925195e-01   3.3182823e-01
   2.2500000e-01  -6.9613374e-01  -8.9614300e-01   2.0000926e-01
   2.2600000e-01  -8.5364871e-01  -9.0226068e-01   4.8611978e-02
   2.2700000e-01  -1.0155533e+00  -9.0800949e-01  -1.0754378e-01
   2.2800000e-01  -1.1665808e+00  -9.1340838e-01  -2.5317240e-01
   2.2900000e-01  -1.2924313e+00  -9.1841255e-01  -3.7401875e-01
   2.3000000e-01  -1.3808505e+00  -9.2259696e-01  -4.5825353e-01
   2.3100000e-01  -1.4239726e+00  -9.2634138e-01  -4.9763126e-01
   2.3200000e-01  -1.4179499e+00  -9.2965256e-01  -4.8829738e-01
   2.3300000e-01  -1.3636473e+00  -9.3248176e-01  -4.3116555e-01
   2.3400000e-01  -1.2662221e+00  -9.3439390e-01  -3.3182823e-01
   2.3500000e-01  -1.1358330e+00  -9.3582370e-01  -2.0000926e-01
   2.3600000e-01  -9.8543399e-01  -9.3682201e-01  -4.8611978e-02
   2.3700000e-01  -8.2984210e-01  -9.3738588e-01   1.0754378e-01
   2.3800000e-01  -6.8395864e-01  -9.3713104e-01   2.5317240e-01
   2.3900000e-01  -5.6248122e-01  -9.3649997e-01   3.7401875e-01
   2.4000000e-01  -4.7729106e-01  -9.3554459e-01   4.5825353e-01
   2.4100000e-01  -4.3661427e-01  -9.3424554e-01   4.9763126e-01
   2.4200000e-01  -4.4390134e-01  -9.3219872e-01   4.8829738e-01
   2.4300000e-01  -4.9862326e-01  -9.2978882e-01   4.3116555e-01
   2.4400000e-01  -5.9518920e-01  -9.2701744e-01   3.3182823e-01
   2.4500000e-01  -7.2381160e-01  -9.2382086e-01   2.0000926e-01
   2.4600000e-01  -8.7114739e-01  -9.1975937e-01   4.8611978e-02
   2.4700000e-01  -1.0227537e+00  -9.1520987e-01  -1.0754378e-01
   2.4800000e-01  -1.1633482e+00  -9.1017585e-01  -2.5317240e-01
   2.4900000e-01  -1.2786251e+00  -9.0460637e-01  -3.7401875e-01
   2.5000000e-01  -1.3563639e+00  -8.9811039e-01  -4.5825353e-01
   2.5100000e-01  -1.3886661e+00  -8.9103484e-01  -4.9763126e-01
   2.5200000e-01  -1.3716786e+00  -8.8338120e-01  -4.8829738e-01
   2.5300000e-01  -1.3062622e+00  -8.7509660e-01  -4.3116555e-01
   2.5400000e-01  -1.1976319e+00  -8.6580370e-01  -3.3182823e-01
   2.5500000e-01  -1.0558395e+00  -8.5583027e-01  -2.0000926e-01
   2.5600000e-01  -8.9378674e-01  -8.4517476e-01  -4.8611978e-02
   2.5700000e-01  -7.2624228e-01  -8.3378606e-01   1.0754378e-01
   2.5800000e-01  -5.6814996e-01  -8.2132237e-01   2.5317240e-01
   2.5900000e-01  -4.3405700e-01  -8.0807574e-01   3.7401875e-01
   2.6000000e-01  -3.3578751e-01  -7.9404104e-01   4.5825353e-01
   2.6100000e-01  -2.8153802e-01  -7.7916929e-01   4.9763126e-01
   2.6200000e-01  -2.7486385e-01  -7.6316124e-01   4.8829738e-01
   2.6300000e-01  -3.1510067e-01  -7.4626623e-01   4.3116555e-01
   2.6400000e-01  -3.9664664e-01  -7.2847487e-01   3.3182823e-01
   2.6500000e-01  -5.0973155e-01  -7.0974081e-01   2.0000926e-01
   2.6600000e-01  -6.4427013e-01  -6.9288211e-01   4.8611978e-02
   2.6700000e-01  -7.8099955e-01  -6.7345577e-01  -1.0754378e-01
   2.6800000e-01  -9.0362646e-01  -6.5045405e-01  -2.5317240e-01
   2.6900000e-01  -9.9801388e-01  -6.2399513e-01  -3.7401875e-01
   2.7000000e-01  -1.0474578e+00  -5.8920427e-01  -4.5825353e-01
   2.7100000e-01  -1.0556146e+00  -5.5798331e-01  -4.9763126e-01
   2.7200000e-01  -1.0230316e+00  -5.3473419e-01  -4.8829738e-01
   2.7300000e-01  -9.5159235e-01  -5.2042680e-01  -4.3116555e-01
   2.7400000e-01  -8.5441254e-01  -5.2258431e-01  -3.3182823e-01
   2.7500000e-01  -7.1419379e-01  -5.1418454e-01  -2.0000926e-01
   2.7600000e-01  -5.2626178e-01  -4.7764980e-01  -4.8611978e-02
   2.7700000e-01  -2.8998655e-01  -3.9753033e-01   1.0754378e-01
   2.7800000e-01   2.1462936e-03  -2.5102611e-01   2.5317240e-01
   2.7900000e-01   3.1655062e-01  -5.7468123e-02   3.7401875e-01
   2.8000000e-01   6.2911684e-01   1.7086331e-01   4.5825353e-01
   2.8100000e-01   9.1651228e-01   4.1888102e-01   4.9763126e-01
   2.8200000e-01   1.1496598e+00   6.6136242e-01   4.8829738e-01
   2.8300000e-01   1.3365296e+00   9.0536409e-01   4.3116555e-01
   2.8400000e-01   1.4820840e+00   1.1502558e+00   3.3182823e-01
   2.8500000e-01   1.5971606e+00   1.3971513e+00   2.0000926e-01
   2.8600000e-01   1.7014229e+00   1.6528109e+00   4.8611978e-02
   2.8700000e-01   1.7980729e+00   1.9056167e+00  -1.0754378e-01
   2.8800000e-01   1.8942205e+00   2.1473929e+00  -2.5317240e-01
   2.8900000e-01   1.9936062e+00   2.3676250e+00  -3.7401875e-01
   2.9000000e-01   2.0953287e+00   2.5535823e+00  -4.5825353e-01
   2.9100000e-01   2.1973314e+00   2.6949627e+00  -4.9763126e-01
   2.9200000e-01   2.2936257e+00   2.7819231e+00  -4.8829738e-01
   2.9300000e-01   2.3761663e+00   2.8073318e+00  -4.3116555e-01
   2.9400000e-01   2.4353736e+00   2.7672018e+00  -3.3182823e-01
   2.9500000e-01   2.4634933e+00   2.6635025e+00  -2.0000926e-01
   2.9600000e-01   2.4533207e+00   2.5019326e+00  -4.8611978e-02
   2.9700000e-01   2.3995091e+00   2.2919653e+00   1.0754378e-01
   2.9800000e-01   2.3003348e+00   2.0471624e+00   2.5317240e-01
   2.9900000e-01   2.1532187e+00   1.7791999e+00   3.7401875e-01
   3.0000000e-01   1.9596984e+00   1.5014449e+00   4.5825353e-01
   3.0100000e-01   1.7241565e+00   1.2265252e+00   4.9763126e-01
   3.0200000e-01   1.4532556e+00   9.6495826e-01   4.8829738e-01
   3.0300000e-01   1.1568343e+00   7.2566875e-01   4.3116555e-01
   3.0400000e-01   8.4586110e-01   5.1403287e-01   3.3182823e-01
   3.0500000e-01   5.3200971e-01   3.3200046e-01   2.0000926e-01
   3.0600000e-01   2.2918571e-01   1.8057374e-01   4.8611978e-02
   3.0700000e-01  -5.5493918e-02   5.2049861e-02  -1.0754378e-01
   3.0800000e-01  -3.1363376e-01  -6.0461358e-02  -2.5317240e-01
   3.0900000e-01  -5.3791392e-01  -1.6389518e-01  -3.7401875e-01
   3.1000000e-01  -7.2603927e-01  -2.6778574e-01  -4.5825353e-01
   3.1100000e-01  -8.6763290e-01  -3.7000163e-01  -4.9763126e-01
   3.1200000e-01  -9.5909516e-01  -4.7079777e-01  -4.8829738e-01
   3.1300000e-01  -1.0010743e+00  -5.6990875e-01  -4.3116555e-01
   3.1400000e-01  -9.9460550e-01  -6.6277727e-01  -3.3182823e-01
   3.1500000e-01  -9.5783967e-01  -7.5783042e-01  -2.0000926e-01
   3.1600000e-01  -9.0771439e-01  -8.5910241e-01  -4.8611978e-02
   3.1700000e-01  -8.6219857e-01  -9.6974235e-01   1.0754378e-01
   3.1800000e-01  -8.4200691e-01  -1.0951793e+00   2.5317240e-01
   3.1900000e-01  -8.5298606e-01  -1.2270048e+00   3.7401875e-01
   3.2000000e-01  -9.0082938e-01  -1.3590829e+00   4.5825353e-01
   3.2100000e-01  -9.8662292e-01  -1.4842542e+00   4.9763126e-01
   3.2200000e-01  -1.1059974e+00  -1.5942948e+00   4.8829738e-01
   3.2300000e-01  -1.2545147e+00  -1.6856802e+00   4.3116555e-01
   3.2400000e-01  -1.4237642e+00  -1.7555924e+00   3.3182823e-01
   3.2500000e-01  -1.6034372e+00  -1.8034464e+00   2.0000926e-01
   3.2600000e-01  -1.7814027e+00  -1.8300147e+00   4.8611978e-02
   3.2700000e-01  -1.9469562e+00  -1.8394124e+00  -1.0754378e-01
   3.2800000e-01  -2.0889655e+00  -1.8357931e+00  -2.5317240e-01
   3.2900000e-01  -2.1970676e+00  -1.8230489e+00  -3.7401875e-01
   3.3000000e-01  -2.2644105e+00  -1.8061570e+00  -4.5825353e-01
   3.3100000e-01  -2.2805786e+00  -1.7829474e+00  -4.9763126e-01
   3.3200000e-01  -2.2404847e+00  -1.7521874e+00  -4.8829738e-01
   3.3300000e-01  -2.1432562e+00  -1.7120906e+00  -4.3116555e-01
   3.3400000e-01  -1.9903473e+00  -1.6585191e+00  -3.3182823e-01
   3.3500000e-01  -1.7949620e+00  -1.5949528e+00  -2.0000926e-01
   3.3600000e-01  -1.5717625e+00  -1.5231505e+00  -4.8611978e-02
   3.3700000e-01  -1.3379287e+00  -1.4454725e+00   1.0754378e-01
   3.3800000e-01  -1.1127174e+00  -1.3658898e+00   2.5317240e-01
   3.3900000e-01  -9.1057556e-01  -1.2845943e+00   3.7401875e-01
   3.4000000e-01  -7.4477901e-01  -1.2030325e+00   4.5825353e-01
   3.4100000e-01  -6.2494824e-01  -1.1225795e+00   4.9763126e-01
   3.4200000e-01  -5.5517678e-01  -1.0434742e+00   4.8829738e-01
   3.4300000e-01  -5.3796294e-01  -9.6912849e-01   4.3116555e-01
   3.4400000e-01  -5.6982388e-01  -9.0165211e-01   3.3182823e-01
   3.4500000e-01  -6.4278753e-01  -8.4279679e-01   2.0000926e-01
   3.4600000e-01  -7.4493149e-01  -7.9354346e-01   4.8611978e-02
   3.4700000e-01  -8.6214006e-01  -7.5459629e-01  -1.0754378e-01
   3.4800000e-01  -9.7880154e-01  -7.2562914e-01  -2.5317240e-01
   3.4900000e-01  -1.0795281e+00  -7.0550937e-01  -3.7401875e-01
   3.5000000e-01  -1.1504646e+00  -6.9221111e-01  -4.5825353e-01
   3.5100000e-01  -1.1816116e+00  -6.8398037e-01  -4.9763126e-01
   3.5200000e-01  -1.1669686e+00  -6.7867118e-01  -4.8829738e-01
   3.5300000e-01  -1.1054814e+00  -6.7431584e-01  -4.3116555e-01
   3.5400000e-01  -1.0001403e+00  -6.6831209e-01  -3.3182823e-01
   3.5500000e-01  -8.6148785e-01  -6.6147859e-01  -2.0000926e-01
   3.5600000e-01  -7.0263200e-01  -6.5402002e-01  -4.8611978e-02
   3.5700000e-01  -5.3886043e-01  -6.4640421e-01   1.0754378e-01
   3.5800000e-01  -3.8606912e-01  -6.3924152e-01   2.5317240e-01
   3.5900000e-01  -2.5869922e-01  -6.3271797e-01   3.7401875e-01
   3.6000000e-01  -1.6862621e-01  -6.2687974e-01   4.5825353e-01
   3.6100000e-01  -1.2391241e-01  -6.2154367e-01   4.9763126e-01
   3.6200000e-01  -1.2734708e-01  -6.1564446e-01   4.8829738e-01
   3.6300000e-01  -1.7883388e-01  -6.0999943e-01   4.3116555e-01
   3.6400000e-01  -2.7280099e-01  -6.0462923e-01   3.3182823e-01
   3.6500000e-01  -3.9949415e-01  -5.9950341e-01   2.0000926e-01
   3.6600000e-01  -5.4566631e-01  -5.9427829e-01   4.8611978e-02
   3.6700000e-01  -6.9683353e-01  -5.8928975e-01  -1.0754378e-01
   3.6800000e-01  -8.3773004e-01  -5.8455764e-01  -2.5317240e-01
   3.6900000e-01  -9.5407135e-01  -5.8005260e-01  -3.7401875e-01
   3.7000000e-01  -1.0336969e+00  -5.7544335e-01  -4.5825353e-01
   3.7100000e-01  -1.0686847e+00  -5.7105342e-01  -4.9763126e-01
   3.7200000e-01  -1.0551993e+00  -5.6690190e-01  -4.8829738e-01
   3.7300000e-01  -9.9412600e-01  -5.6296044e-01  -4.3116555e-01
   3.7400000e-01  -8.9073714e-01  -5.5890890e-01  -3.3182823e-01
   3.7500000e-01  -7.5506895e-01  -5.5505969e-01  -2.0000926e-01
   3.7600000e-01  -6.0004323e-01  -5.5143125e-01  -4.8611978e-02
   3.7700000e-01  -4.4045233e-01  -5.4799611e-01   1.0754378e-01
   3.7800000e-01  -2.9127176e-01  -5.4444416e-01   2.5317240e-01
   3.7900000e-01  -1.6705907e-01  -5.4107782e-01   3.7401875e-01
   3.8000000e-01  -7.9661381e-02  -5.3791491e-01   4.5825353e-01
   3.8100000e-01  -3.7297529e-02  -5.3492879e-01   4.9763126e-01
   3.8200000e-01  -4.3520982e-02  -5.3181837e-01   4.8829738e-01
   3.8300000e-01  -9.7711490e-02  -5.2887704e-01   4.3116555e-01
   3.8400000e-01  -1.9429389e-01  -5.2612212e-01   3.3182823e-01
   3.8500000e-01  -3.2351842e-01  -5.2352767e-01   2.0000926e-01
   3.8600000e-01  -4.7218877e-01  -5.2080074e-01   4.8611978e-02
   3.8700000e-01  -6.2577040e-01  -5.1822662e-01  -1.0754378e-01
   3.8800000e-01  -7.6899452e-01  -5.1582211e-01  -2.5317240e-01
   3.8900000e-01  -8.8758068e-01  -5.1356194e-01  -3.7401875e-01
   3.9000000e-01  -9.6941406e-01  -5.1116053e-01  -4.5825353e-01
   3.9100000e-01  -1.0065271e+00  -5.0889580e-01  -4.9763126e-01
   3.9200000e-01  -9.9508150e-01  -5.0678412e-01  -4.8829738e-01
   3.9300000e-01  -9.3596633e-01  -5.0480077e-01  -4.3116555e-01
   3.9400000e-01  -8.3449518e-01  -5.0266695e-01  -3.3182823e-01
   3.9500000e-01  -7.0066309e-01  -5.0065384e-01  -2.0000926e-01
   3.9600000e-01  -5.4738934e-01  -4.9877736e-01  -4.8611978e-02
   3.9700000e-01  -3.8946958e-01  -4.9701336e-01   1.0754378e-01
   3.9800000e-01  -2.4191684e-01  -4.9508924e-01   2.5317240e-01
   3.9900000e-01  -1.1925123e-01  -4.9326997e-01   3.7401875e-01
   4.0000000e-01  -3.3317551e-02  -4.9157108e-01   4.5825353e-01
   4.0100000e-01   7.6623822e-03  -4.8996888e-01   4.9763126e-01
   4.0200000e-01   1.0075053e-04  -4.8819663e-01   4.8829738e-01
   4.0300000e-01  -5.5347909e-02  -4.8651346e-01   4.3116555e-01
   4.0400000e-01  -1.5310627e-01  -4.8493451e-01   3.3182823e-01
   4.0500000e-01  -2.8342727e-01  -4.8343653e-01   2.0000926e-01
   4.0600000e-01  -4.3314638e-01  -4.8175836e-01   4.8611978e-02
   4.0700000e-01  -5.8769734e-01  -4.8015356e-01  -1.0754378e-01
   4.0800000e-01  -7.3180927e-01  -4.7863687e-01  -2.5317240e-01
   4.0900000e-01  -8.5120423e-01  -4.7718549e-01  -3.7401875e-01
   4.1000000e-01  -9.3379718e-01  -4.7554365e-01  -4.5825353e-01
   4.1100000e-01  -9.7159077e-01  -4.7395950e-01  -4.9763126e-01
   4.1200000e-01  -9.6074479e-01  -4.7244740e-01  -4.8829738e-01
   4.1300000e-01  -9.0215049e-01  -4.7098494e-01  -4.3116555e-01
   4.1400000e-01  -8.0114997e-01  -4.6932173e-01  -3.3182823e-01
   4.1500000e-01  -6.6770981e-01  -4.6770055e-01  -2.0000926e-01
   4.1600000e-01  -5.1474732e-01  -4.6613534e-01  -4.8611978e-02
   4.1700000e-01  -3.5706028e-01  -4.6460406e-01   1.0754378e-01
   4.1800000e-01  -2.0968945e-01  -4.6286185e-01   2.5317240e-01
   4.1900000e-01  -8.7127212e-02  -4.6114596e-01   3.7401875e-01
   4.2000000e-01  -1.2163760e-03  -4.5946991e-01   4.5825353e-01
   4.2100000e-01   3.9819213e-02  -4.5781205e-01   4.9763126e-01
   4.2200000e-01   3.2364164e-02  -4.5593322e-01   4.8829738e-01
   4.2300000e-01  -2.2899414e-02  -4.5406497e-01   4.3116555e-01
   4.2400000e-01  -1.2039210e-01  -4.5222034e-01   3.3182823e-01
   4.2500000e-01  -2.5036883e-01  -4.5037809e-01   2.0000926e-01
   4.2600000e-01  -3.9969311e-01  -4.4830508e-01   4.8611978e-02
   4.2700000e-01  -5.5377061e-01  -4.4622683e-01  -1.0754378e-01
   4.2800000e-01  -6.9732827e-01  -4.4415587e-01  -2.5317240e-01
   4.2900000e-01  -8.1609011e-01  -4.4207136e-01  -3.7401875e-01
   4.3000000e-01  -8.9800020e-01  -4.3974667e-01  -4.5825353e-01
   4.3100000e-01  -9.3503206e-01  -4.3740080e-01  -4.9763126e-01
   4.3200000e-01  -9.2334311e-01  -4.3504572e-01  -4.8829738e-01
   4.3300000e-01  -8.6382660e-01  -4.3266105e-01  -4.3116555e-01
   4.3400000e-01  -7.6185545e-01  -4.3002721e-01  -3.3182823e-01
   4.3500000e-01  -6.2736538e-01  -4.2735612e-01  -2.0000926e-01
   4.3600000e-01  -4.7327111e-01  -4.2465914e-01  -4.8611978e-02
   4.3700000e-01  -3.1437256e-01  -4.2191634e-01   1.0754378e-01
   4.3800000e-01  -1.6574354e-01  -4.1891594e-01   2.5317240e-01
   4.3900000e-01  -4.1843305e-02  -4.1586205e-01   3.7401875e-01
   4.4000000e-01   4.5488187e-02  -4.1276534e-01   4.5825353e-01
   4.4100000e-01   8.8024850e-02  -4.0960641e-01   4.9763126e-01
   4.4200000e-01   8.2115301e-02  -4.0618208e-01   4.8829738e-01
   4.4300000e-01   2.8477720e-02  -4.0268783e-01   4.3116555e-01
   4.4400000e-01  -6.7305336e-02  -3.9913357e-01   3.3182823e-01
   4.4500000e-01  -1.9549121e-01  -3.9550046e-01   2.0000926e-01
   4.4600000e-01  -3.4298290e-01  -3.9159488e-01   4.8611978e-02
   4.4700000e-01  -4.9514650e-01  -3.8760272e-01  -1.0754378e-01
   4.4800000e-01  -6.3670546e-01  -3.8353305e-01  -2.5317240e-01
   4.4900000e-01  -7.5338642e-01  -3.7936767e-01  -3.7401875e-01
   4.5000000e-01  -8.3320869e-01  -3.7495516e-01  -4.5825353e-01
   4.5100000e-01  -8.6805422e-01  -3.7042296e-01  -4.9763126e-01
   4.5200000e-01  -8.5406630e-01  -3.6576892e-01  -4.8829738e-01
   4.5300000e-01  -7.9214277e-01  -3.6097722e-01  -4.3116555e-01
   4.5400000e-01  -6.8769936e-01  -3.5587113e-01  -3.3182823e-01
   4.5500000e-01  -5.5067983e-01  -3.5067057e-01  -2.0000926e-01
   4.5600000e-01  -3.9402629e-01  -3.4541431e-01  -4.8611978e-02
   4.5700000e-01  -2.3255452e-01  -3.4009830e-01   1.0754378e-01
   4.5800000e-01  -8.1426579e-02  -3.3459898e-01   2.5317240e-01
   4.5900000e-01   4.5099228e-02  -3.2891952e-01   3.7401875e-01
   4.6000000e-01   1.3531380e-01  -3.2293973e-01   4.5825353e-01
   4.6100000e-01   1.8113118e-01  -3.1650008e-01   4.9763126e-01
   4.6200000e-01   1.7896910e-01  -3.0932828e-01   4.8829738e-01
   4.6300000e-01   1.2975067e-01  -3.0141488e-01   4.3116555e-01
   4.6400000e-01   3.9161390e-02  -2.9266684e-01   3.3182823e-01
   4.6500000e-01  -8.3009459e-02  -2.8301872e-01   2.0000926e-01
   4.6600000e-01  -2.2374056e-01  -2.7235254e-01   4.8611978e-02
   4.6700000e-01  -3.6836861e-01  -2.6082483e-01  -1.0754378e-01
   4.6800000e-01  -5.0169398e-01  -2.4852158e-01  -2.5317240e-01
   4.6900000e-01  -6.0955486e-01  -2.3553612e-01  -3.7401875e-01
   4.7000000e-01  -6.8017948e-01  -2.2192595e-01  -4.5825353e-01
   4.7100000e-01  -7.0545206e-01  -2.0782080e-01  -4.9763126e-01
   4.7200000e-01  -6.8158934e-01  -1.9329196e-01  -4.8829738e-01
   4.7300000e-01  -6.0955573e-01  -1.7839017e-01  -4.3116555e-01
   4.7400000e-01  -4.9491073e-01  -1.6308250e-01  -3.3182823e-01
   4.7500000e-01  -3.4753212e-01  -1.4752286e-01  -2.0000926e-01
   4.7600000e-01  -1.8039281e-01  -1.3178083e-01  -4.8611978e-02
   4.7700000e-01  -8.3749844e-03  -1.1591876e-01   1.0754378e-01
   4.7800000e-01   1.5317990e-01  -9.9992503e-02   2.5317240e-01
   4.7900000e-01   2.8995104e-01  -8.4067702e-02   3.7401875e-01
   4.8000000e-01   3.9005134e-01  -6.8202189e-02   4.5825353e-01
   4.8100000e-01   4.4517149e-01  -5.2459773e-02   4.9763126e-01
   4.8200000e-01   4.5142405e-01  -3.6873331e-02   4.8829738e-01
   4.8300000e-01   4.0956849e-01  -2.1597064e-02   4.3116555e-01
   4.8400000e-01   3.2509791e-01  -6.7303263e-03   3.3182823e-01
   4.8500000e-01   2.0765817e-01   7.6489166e-03   2.0000926e-01
   4.8600000e-01   7.0086935e-02   2.1474957e-02   4.8611978e-02
   4.8700000e-01  -7.2768731e-02   3.4775049e-02  -1.0754378e-01
   4.8800000e-01  -2.0556479e-01   4.7607613e-02  -2.5317240e-01
   4.8900000e-01  -3.1394932e-01   6.0069423e-02  -3.7401875e-01
   4.9000000e-01  -3.8600233e-01   7.2251196e-02  -4.5825353e-01
   4.9100000e-01  -4.1330588e-01   8.4325381e-02  -4.9763126e-01
   4.9200000e-01  -3.9186489e-01   9.6432492e-02  -4.8829738e-01
   4.9300000e-01  -3.2248146e-01   1.0868409e-01  -4.3116555e-01
   4.9400000e-01  -2.1069184e-01   1.2113640e-01  -3.3182823e-01
   4.9500000e-01  -6.6187943e-02   1.3382131e-01  -2.0000926e-01
   4.9600000e-01   9.8112121e-02   1.4672410e-01  -4.8611978e-02
   4.9700000e-01   2.6734234e-01   1.5979856e-01   1.0754378e-01
   4.9800000e-01   4.2605261e-01   1.7288021e-01   2.5317240e-01
   4.9900000e-01   5.6008000e-01   1.8606126e-01   3.7401875e-01
   5.0000000e-01   6.5759340e-01   1.9933987e-01   4.5825353e-01
   5.0100000e-01   7.1034112e-01   2.1270986e-01   4.9763126e-01
   5.0200000e-01   7.1438365e-01   2.2608626e-01   4.8829738e-01
   5.0300000e-01   6.7071374e-01   2.3954818e-01   4.3116555e-01
   5.0400000e-01   5.8492538e-01   2.5309714e-01   3.3182823e-01
   5.0500000e-01   4.6672429e-01   2.6671504e-01   2.0000926e-01
   5.0600000e-01   3.2885856e-01   2.8024658e-01   4.8611978e-02
   5.0700000e-01   1.8628103e-01   2.9382480e-01  -1.0754378e-01
   5.0800000e-01   5.4280496e-02   3.0745290e-01  -2.5317240e-01
   5.0900000e-01  -5.2907604e-02   3.2111114e-01  -3.7401875e-01
   5.1000000e-01  -1.2363148e-01   3.3462205e-01  -4.5825353e-01
   5.1100000e-01  -1.4949041e-01   3.4814086e-01  -4.9763126e-01
   5.1200000e-01  -1.2662501e-01   3.6167237e-01  -4.8829738e-01
   5.1300000e-01  -5.5970340e-02   3.7519521e-01  -4.3116555e-01
   5.1400000e-01   5.6681632e-02   3.8850987e-01  -3.3182823e-01
   5.1500000e-01   2.0178434e-01   4.0179359e-01  -2.0000926e-01
   5.1600000e-01   3.6644077e-01   4.1505275e-01  -4.8611978e-02
   5.1700000e-01   5.3580808e-01   4.2826430e-01   1.0754378e-01
   5.1800000e-01   6.9437961e-01   4.4120721e-01   2.5317240e-01
   5.1900000e-01   8.2809899e-01   4.5408024e-01   3.7401875e-01
   5.2000000e-01   9.2514474e-01   4.6689122e-01   4.5825353e-01
   5.2100000e-01   9.7724670e-01   4.7961544e-01   4.9763126e-01
   5.2200000e-01   9.8030866e-01   4.9201127e-01   4.8829738e-01
   5.2300000e-01   9.3546361e-01   5.0429806e-01   4.3116555e-01
   5.2400000e-01   8.4831319e-01   5.1648496e-01   3.3182823e-01
   5.2500000e-01   7.2855493e-01   5.2854567e-01   2.0000926e-01
   5.2600000e-01   5.8883121e-01   5.4021924e-01   4.8611978e-02
   5.2700000e-01   4.4420050e-01   5.5174428e-01  -1.0754378e-01
   5.2800000e-01   3.0995876e-01   5.6313116e-01  -2.5317240e-01
   5.2900000e-01   2.0033331e-01   5.7435205e-01  -3.7401875e-01
   5.3000000e-01   1.2687476e-01   5.8512829e-01  -4.5825353e-01
   5.3100000e-01   9.8084879e-02   5.9571614e-01  -4.9763126e-01
   5.3200000e-01   1.1782963e-01   6.0612702e-01  -4.8829738e-01
   5.3300000e-01   1.8516606e-01   6.1633162e-01  -4.3116555e-01
   5.3400000e-01   2.9420738e-01   6.2603561e-01  -3.3182823e-01
   5.3500000e-01   4.3550164e-01   6.3551090e-01  -2.0000926e-01
   5.3600000e-01   5.9615772e-01   6.4476970e-01  -4.8611978e-02
   5.3700000e-01   7.6132519e-01   6.5378141e-01   1.0754378e-01
   5.3800000e-01   9.1541080e-01   6.6223839e-01   2.5317240e-01
   5.3900000e-01   1.0444445e+00   6.7042579e-01   3.7401875e-01
   5.4000000e-01   1.1366099e+00   6.7835641e-01   4.5825353e-01
   5.4100000e-01   1.1836297e+00   6.8599848e-01   4.9763126e-01
   5.4200000e-01   1.1813312e+00   6.9303382e-01   4.8829738e-01
   5.4300000e-01   1.1309236e+00   6.9975805e-01   4.3116555e-01
   5.4400000e-01   1.0380126e+00   7.0618432e-01   3.3182823e-01
   5.4500000e-01   9.1228912e-01   7.1227986e-01   2.0000926e-01
   5.4600000e-01   7.6634626e-01   7.1773428e-01   4.8611978e-02
   5.4700000e-01   6.1528375e-01   7.2282753e-01  -1.0754378e-01
   5.4800000e-01   4.7439548e-01   7.2756788e-01  -2.5317240e-01
   5.4900000e-01   3.5790386e-01   7.3192260e-01  -3.7401875e-01
   5.5000000e-01   2.7730614e-01   7.3555967e-01  -4.5825353e-01
   5.5100000e-01   2.4118154e-01   7.3881281e-01  -4.9763126e-01
   5.5200000e-01   2.5341278e-01   7.4171017e-01  -4.8829738e-01
   5.5300000e-01   3.1305820e-01   7.4422375e-01  -4.3116555e-01
   5.5400000e-01   4.1421248e-01   7.4604072e-01  -3.3182823e-01
   5.5500000e-01   5.4738786e-01   7.4739711e-01  -2.0000926e-01
   5.5600000e-01   6.9963281e-01   7.4824479e-01  -4.8611978e-02
   5.5700000e-01   8.5602413e-01   7.4848035e-01   1.0754378e-01
   5.5800000e-01   1.0008893e+00   7.4771686e-01   2.5317240e-01
   5.5900000e-01   1.1202049e+00   7.4618615e-01   3.7401875e-01
   5.6000000e-01   1.2021057e+00   7.4385215e-01   4.5825353e-01
   5.6100000e-01   1.2382868e+00   7.4065552e-01   4.9763126e-01
   5.6200000e-01   1.2245814e+00   7.3628398e-01   4.8829738e-01
   5.6300000e-01   1.1622131e+00   7.3104752e-01   4.3116555e-01
   5.6400000e-01   1.0568234e+00   7.2499513e-01   3.3182823e-01
   5.6500000e-01   9.1815274e-01   7.1814348e-01   2.0000926e-01
   5.6600000e-01   7.5888219e-01   7.1027022e-01   4.8611978e-02
   5.6700000e-01   5.9412290e-01   7.0166668e-01  -1.0754378e-01
   5.6800000e-01   4.3920140e-01   6.9237380e-01  -2.5317240e-01
   5.6900000e-01   3.0836917e-01   6.8238791e-01  -3.7401875e-01
   5.7000000e-01   2.1319983e-01   6.7145336e-01  -4.5825353e-01
   5.7100000e-01   1.6223162e-01   6.5986288e-01  -4.9763126e-01
   5.7200000e-01   1.5935777e-01   6.4765516e-01  -4.8829738e-01
   5.7300000e-01   2.0366694e-01   6.3483249e-01  -4.3116555e-01
   5.7400000e-01   2.8935064e-01   6.2117887e-01  -3.3182823e-01
   5.7500000e-01   4.0694750e-01   6.0695676e-01  -2.0000926e-01
   5.7600000e-01   5.4359117e-01   5.9220315e-01  -4.8611978e-02
   5.7700000e-01   6.8446467e-01   5.7692089e-01   1.0754378e-01
   5.7800000e-01   8.1408353e-01   5.6091112e-01   2.5317240e-01
   5.7900000e-01   9.1843776e-01   5.4441902e-01   3.7401875e-01
   5.8000000e-01   9.8573317e-01   5.2747964e-01   4.5825353e-01
   5.8100000e-01   1.0077280e+00   5.1009678e-01   4.9763126e-01
   5.8200000e-01   9.8039087e-01   4.9209349e-01   4.8829738e-01
   5.8300000e-01   9.0485848e-01   4.7369293e-01   4.3116555e-01
   5.8400000e-01   7.8675623e-01   4.5492800e-01   3.3182823e-01
   5.8500000e-01   6.3581311e-01   4.3580385e-01   2.0000926e-01
   5.8600000e-01   4.6478133e-01   4.1616935e-01   4.8611978e-02
   5.8700000e-01   2.8867798e-01   3.9622176e-01  -1.0754378e-01
   5.8800000e-01   1.2281921e-01   3.7599161e-01  -2.5317240e-01
   5.8900000e-01  -1.8532979e-02   3.5548577e-01  -3.7401875e-01
   5.9000000e-01  -1.2367144e-01   3.3458209e-01  -4.5825353e-01
   5.9100000e-01  -1.8418248e-01   3.1344878e-01  -4.9763126e-01
   5.9200000e-01  -1.9618352e-01   2.9211387e-01  -4.8829738e-01
   5.9300000e-01  -1.6057935e-01   2.7058621e-01  -4.3116555e-01
   5.9400000e-01  -8.3053139e-02   2.4877510e-01  -3.3182823e-01
   5.9500000e-01   2.6807999e-02   2.2681725e-01  -2.0000926e-01
   5.9600000e-01   1.5612617e-01   2.0473814e-01  -4.8611978e-02
   5.9700000e-01   2.9009263e-01   1.8254885e-01   1.0754378e-01
   5.9800000e-01   4.1336415e-01   1.6019175e-01   2.5317240e-01
   5.9900000e-01   5.1178920e-01   1.3777045e-01   3.7401875e-01
   6.0000000e-01   5.7356136e-01   1.1530783e-01   4.5825353e-01
   6.0100000e-01   5.9044863e-01   9.2817368e-02   4.9763126e-01
   6.0200000e-01   5.5857282e-01   7.0275438e-02   4.8829738e-01
   6.0300000e-01   4.7891719e-01   4.7751638e-02   4.3116555e-01
   6.0400000e-01   3.5709454e-01   2.5266308e-02   3.3182823e-01
   6.0500000e-01   2.0284470e-01   2.8354392e-03   2.0000926e-01
   6.0600000e-01   2.9081520e-02  -1.9530458e-02   4.8611978e-02
   6.0700000e-01  -1.4933970e-01  -4.1795918e-02  -1.0754378e-01
   6.0800000e-01  -3.1711544e-01  -6.3943040e-02  -2.5317240e-01
   6.0900000e-01  -4.5997201e-01  -8.5953260e-02  -3.7401875e-01
   6.1000000e-01  -5.6603609e-01  -1.0778256e-01  -4.5825353e-01
   6.1100000e-01  -6.2706021e-01  -1.2942895e-01  -4.9763126e-01
   6.1200000e-01  -6.3917421e-01  -1.5087683e-01  -4.8829738e-01
   6.1300000e-01  -6.0327061e-01  -1.7210506e-01  -4.3116555e-01
   6.1400000e-01  -5.2486570e-01  -1.9303747e-01  -3.3182823e-01
   6.1500000e-01  -4.1371344e-01  -2.1370419e-01  -2.0000926e-01
   6.1600000e-01  -2.8270365e-01  -2.3409167e-01  -4.8611978e-02
   6.1700000e-01  -1.4663249e-01  -2.5417627e-01   1.0754378e-01
   6.1800000e-01  -2.0679414e-02  -2.7385182e-01   2.5317240e-01
   6.1900000e-01   8.0840380e-02  -2.9317837e-01   3.7401875e-01
   6.2000000e-01   1.4610933e-01  -3.1214420e-01   4.5825353e-01
   6.2100000e-01   1.6690804e-01  -3.3072323e-01   4.9763126e-01
   6.2200000e-01   1.3951517e-01  -3.4878221e-01   4.8829738e-01
   6.2300000e-01   6.4757338e-02  -3.6640822e-01   4.3116555e-01
   6.2400000e-01  -5.1762771e-02  -3.8359101e-01   3.3182823e-01
   6.2500000e-01  -2.0029299e-01  -4.0030225e-01   2.0000926e-01
   6.2600000e-01  -3.6777330e-01  -4.1638527e-01   4.8611978e-02
   6.2700000e-01  -5.3949425e-01  -4.3195047e-01  -1.0754378e-01
   6.2800000e-01  -7.0016112e-01  -4.4698872e-01  -2.5317240e-01
   6.2900000e-01  -8.3548841e-01  -4.6146966e-01  -3.7401875e-01
   6.3000000e-01  -9.3347115e-01  -4.7521762e-01  -4.5825353e-01
   6.3100000e-01  -9.8599313e-01  -4.8836186e-01  -4.9763126e-01
   6.3200000e-01  -9.8919135e-01  -5.0089396e-01  -4.8829738e-01
   6.3300000e-01  -9.4394735e-01  -5.1278179e-01  -4.3116555e-01
   6.3400000e-01  -8.5562785e-01  -5.2379961e-01  -3.3182823e-01
   6.3500000e-01  -7.3415450e-01  -5.3414525e-01  -2.0000926e-01
   6.3600000e-01  -5.9243416e-01  -5.4382218e-01  -4.8611978e-02
   6.3700000e-01  -4.4525118e-01  -5.5279496e-01   1.0754378e-01
   6.3800000e-01  -3.0767983e-01  -5.6085223e-01   2.5317240e-01
   6.3900000e-01  -1.9409189e-01  -5.6811064e-01   3.7401875e-01
   6.4000000e-01  -1.1627825e-01  -5.7453178e-01   4.5825353e-01
   6.4100000e-01  -8.2434228e-02  -5.8006549e-01   4.9763126e-01
   6.4200000e-01  -9.6160685e-02  -5.8445807e-01   4.8829738e-01
   6.4300000e-01  -1.5685695e-01  -5.8802250e-01   4.3116555e-01
   6.4400000e-01  -2.5905133e-01  -5.9087957e-01   3.3182823e-01
   6.4500000e-01  -3.9314045e-01  -5.9314971e-01   2.0000926e-01
   6.4600000e-01  -5.4612431e-01  -5.9473629e-01   4.8611978e-02
   6.4700000e-01  -7.0360533e-01  -5.9606155e-01  -1.0754378e-01
   6.4800000e-01  -8.5047121e-01  -5.9729880e-01  -2.5317240e-01
   6.4900000e-01  -9.7257244e-01  -5.9855370e-01  -3.7401875e-01
   6.5000000e-01  -1.0579209e+00  -5.9966740e-01  -4.5825353e-01
   6.5100000e-01  -1.0985393e+00  -6.0090805e-01  -4.9763126e-01
   6.5200000e-01  -1.0905823e+00  -6.0228493e-01  -4.8829738e-01
   6.5300000e-01  -1.0349099e+00  -6.0374432e-01  -4.3116555e-01
   6.5400000e-01  -9.3675339e-01  -6.0492516e-01  -3.3182823e-01
   6.5500000e-01  -8.0614825e-01  -6.0613899e-01  -2.0000926e-01
   6.5600000e-01  -6.5601967e-01  -6.0740769e-01  -4.8611978e-02
   6.5700000e-01  -5.0117530e-01  -6.0871908e-01   1.0754378e-01
   6.5800000e-01  -3.5663351e-01  -6.0980591e-01   2.5317240e-01
   6.5900000e-01  -2.3693416e-01  -6.1095290e-01   3.7401875e-01
   6.6000000e-01  -1.5393036e-01  -6.1218389e-01   4.5825353e-01
   6.6100000e-01  -1.1584423e-01  -6.1347549e-01   4.9763126e-01
   6.6200000e-01  -1.2620902e-01  -6.1450640e-01   4.8829738e-01
   6.6300000e-01  -1.8443235e-01  -6.1559790e-01   4.3116555e-01
   6.6400000e-01  -2.8494574e-01  -6.1677397e-01   3.3182823e-01
   6.6500000e-01  -4.1800179e-01  -6.1801105e-01   2.0000926e-01
   6.6600000e-01  -5.7037349e-01  -6.1898547e-01   4.8611978e-02
   6.6700000e-01  -7.2756464e-01  -6.2002086e-01  -1.0754378e-01
   6.6800000e-01  -8.7431378e-01  -6.2114138e-01  -2.5317240e-01
   6.6900000e-01  -9.9634202e-01  -6.2232327e-01  -3.7401875e-01
   6.7000000e-01  -1.0814941e+00  -6.2324061e-01  -4.5825353e-01
   6.7100000e-01  -1.1218506e+00  -6.2421930e-01  -4.9763126e-01
   6.7200000e-01  -1.1135810e+00  -6.2528362e-01  -4.8829738e-01
   6.7300000e-01  -1.0575752e+00  -6.2640965e-01  -4.3116555e-01
   6.7400000e-01  -9.5909758e-01  -6.2726934e-01  -3.3182823e-01
   6.7500000e-01  -8.2819997e-01  -6.2819071e-01  -2.0000926e-01
   6.7600000e-01  -6.7781018e-01  -6.2919820e-01  -4.8611978e-02
   6.7700000e-01  -5.2272392e-01  -6.3026770e-01   1.0754378e-01
   6.7800000e-01  -3.7789676e-01  -6.3106917e-01   2.5317240e-01
   6.7900000e-01  -2.5791387e-01  -6.3193261e-01   3.7401875e-01
   6.8000000e-01  -1.7462909e-01  -6.3288262e-01   4.5825353e-01
   6.8100000e-01  -1.3626366e-01  -6.3389492e-01   4.9763126e-01
   6.8200000e-01  -1.4634020e-01  -6.3463758e-01   4.8829738e-01
   6.8300000e-01  -2.0427695e-01  -6.3544251e-01   4.3116555e-01
   6.8400000e-01  -3.0450615e-01  -6.3633439e-01   3.3182823e-01
   6.8500000e-01  -4.3727957e-01  -6.3728882e-01   2.0000926e-01
   6.8600000e-01  -5.8936012e-01  -6.3797210e-01   4.8611978e-02
   6.8700000e-01  -7.4626168e-01  -6.3871790e-01  -1.0754378e-01
   6.8800000e-01  -8.9272341e-01  -6.3955101e-01  -2.5317240e-01
   6.8900000e-01  -1.0144657e+00  -6.4044691e-01  -3.7401875e-01
   6.9000000e-01  -1.0993238e+00  -6.4107023e-01  -4.5825353e-01
   6.9100000e-01  -1.1393876e+00  -6.4175629e-01  -4.9763126e-01
   6.9200000e-01  -1.1308274e+00  -6.4253000e-01  -4.8829738e-01
   6.9300000e-01  -1.0745322e+00  -6.4336668e-01  -4.3116555e-01
   6.9400000e-01  -9.7575771e-01  -6.4392947e-01  -3.3182823e-01
   6.9500000e-01  -8.4456445e-01  -6.4455519e-01  -2.0000926e-01
   6.9600000e-01  -6.9388083e-01  -6.4526885e-01  -4.8611978e-02
   6.9700000e-01  -5.3850187e-01  -6.4604565e-01   1.0754378e-01
   6.9800000e-01  -3.9337493e-01  -6.4654734e-01   2.5317240e-01
   6.9900000e-01  -2.7309337e-01  -6.4711211e-01   3.7401875e-01
   7.0000000e-01  -1.8951155e-01  -6.4776508e-01   4.5825353e-01
   7.0100000e-01  -1.5085006e-01  -6.4848132e-01   4.9763126e-01
   7.0200000e-01  -1.6062394e-01  -6.4892132e-01   4.8829738e-01
   7.0300000e-01  -2.1825900e-01  -6.4942455e-01   4.3116555e-01
   7.0400000e-01  -3.1818795e-01  -6.5001618e-01   3.3182823e-01
   7.0500000e-01  -4.5066194e-01  -6.5067120e-01   2.0000926e-01
   7.0600000e-01  -6.0243696e-01  -6.5104894e-01   4.8611978e-02
   7.0700000e-01  -7.5903380e-01  -6.5149002e-01  -1.0754378e-01
   7.0800000e-01  -9.0519207e-01  -6.5201967e-01  -2.5317240e-01
   7.0900000e-01  -1.0266315e+00  -6.5261278e-01  -3.7401875e-01
   7.1000000e-01  -1.1111812e+00  -6.5292770e-01  -4.5825353e-01
   7.1100000e-01  -1.1509373e+00  -6.5330603e-01  -4.9763126e-01
   7.1200000e-01  -1.1420704e+00  -6.5377305e-01  -4.8829738e-01
   7.1300000e-01  -1.0854691e+00  -6.5430358e-01  -4.3116555e-01
   7.1400000e-01  -9.8638333e-01  -6.5455510e-01  -3.3182823e-01
   7.1500000e-01  -8.5487933e-01  -6.5487007e-01  -2.0000926e-01
   7.1600000e-01  -7.0388580e-01  -6.5527382e-01  -4.8611978e-02
   7.1700000e-01  -5.4819732e-01  -6.5574110e-01   1.0754378e-01
   7.1800000e-01  -4.0275625e-01  -6.5592865e-01   2.5317240e-01
   7.1900000e-01  -2.8216091e-01  -6.5617966e-01   3.7401875e-01
   7.2000000e-01  -1.9826597e-01  -6.5651950e-01   4.5825353e-01
   7.2100000e-01  -1.5929159e-01  -6.5692285e-01   4.9763126e-01
   7.2200000e-01  -1.6874847e-01  -6.5704585e-01   4.8829738e-01
   7.2300000e-01  -2.2606674e-01  -6.5723230e-01   4.3116555e-01
   7.2400000e-01  -3.2567935e-01  -6.5750758e-01   3.3182823e-01
   7.2500000e-01  -4.5783707e-01  -6.5784633e-01   2.0000926e-01
   7.2600000e-01  -6.0929234e-01  -6.5790432e-01   4.8611978e-02
   7.2700000e-01  -7.6556943e-01  -6.5802565e-01  -1.0754378e-01
   7.2800000e-01  -9.1140810e-01  -6.5823570e-01  -2.5317240e-01
   7.2900000e-01  -1.0325278e+00  -6.5850905e-01  -3.7401875e-01
   7.3000000e-01  -1.1167546e+00  -6.5850106e-01  -4.5825353e-01
   7.3100000e-01  -1.1561877e+00  -6.5855646e-01  -4.9763126e-01
   7.3200000e-01  -1.1469981e+00  -6.5870074e-01  -4.8829738e-01
   7.3300000e-01  -1.0900741e+00  -6.5890851e-01  -4.3116555e-01
   7.3400000e-01  -9.9066328e-01  -6.5883505e-01  -3.3182823e-01
   7.3500000e-01  -8.5883392e-01  -6.5882466e-01  -2.0000926e-01
   7.3600000e-01  -7.0751434e-01  -6.5890236e-01  -4.8611978e-02
   7.3700000e-01  -5.5149844e-01  -6.5904221e-01   1.0754378e-01
   7.3800000e-01  -4.0572659e-01  -6.5889899e-01   2.5317240e-01
   7.3900000e-01  -2.8479807e-01  -6.5881681e-01   3.7401875e-01
   7.4000000e-01  -2.0056708e-01  -6.5882061e-01   4.5825353e-01
   7.4100000e-01  -1.6125332e-01  -6.5888459e-01   4.9763126e-01
   7.4200000e-01  -1.7036652e-01  -6.5866390e-01   4.8829738e-01
   7.4300000e-01  -2.2733751e-01  -6.5850306e-01   4.3116555e-01
   7.4400000e-01  -3.2659926e-01  -6.5842749e-01   3.3182823e-01
   7.4500000e-01  -4.5840261e-01  -6.5841186e-01   2.0000926e-01
   7.4600000e-01  -6.0950021e-01  -6.5811219e-01   4.8611978e-02
   7.4700000e-01  -7.6541639e-01  -6.5787261e-01  -1.0754378e-01
   7.4800000e-01  -9.1089086e-01  -6.5771846e-01  -2.5317240e-01
   7.4900000e-01  -1.0316430e+00  -6.5762429e-01  -3.7401875e-01
   7.5000000e-01  -1.1154998e+00  -6.5724625e-01  -4.5825353e-01
   7.5100000e-01  -1.1545594e+00  -6.5692813e-01  -4.9763126e-01
   7.5200000e-01  -1.1449926e+00  -6.5669521e-01  -4.8829738e-01
   7.5300000e-01  -1.0876877e+00  -6.5652210e-01  -4.3116555e-01
   7.5400000e-01  -9.8789392e-01  -6.5606569e-01  -3.3182823e-01
   7.5500000e-01  -8.5567834e-01  -6.5566908e-01  -2.0000926e-01
   7.5600000e-01  -7.0396946e-01  -6.5535749e-01  -4.8611978e-02
   7.5700000e-01  -5.4756176e-01  -6.5510554e-01   1.0754378e-01
   7.5800000e-01  -4.0139849e-01  -6.5457089e-01   2.5317240e-01
   7.5900000e-01  -2.8007713e-01  -6.5409588e-01   3.7401875e-01
   7.6000000e-01  -1.9545211e-01  -6.5370564e-01   4.5825353e-01
   7.6100000e-01  -1.5574360e-01  -6.5337486e-01   4.9763126e-01
   7.6200000e-01  -1.6446470e-01  -6.5276209e-01   4.8829738e-01
   7.6300000e-01  -2.2104320e-01  -6.5220876e-01   4.3116555e-01
   7.6400000e-01  -3.1991168e-01  -6.5173991e-01   3.3182823e-01
   7.6500000e-01  -4.5132104e-01  -6.5133030e-01   2.0000926e-01
   7.6600000e-01  -6.0202755e-01  -6.5063953e-01   4.8611978e-02
   7.6700000e-01  -7.5755175e-01  -6.5000797e-01  -1.0754378e-01
   7.6800000e-01  -9.0263295e-01  -6.4946055e-01  -2.5317240e-01
   7.6900000e-01  -1.0229908e+00  -6.4897209e-01  -3.7401875e-01
   7.7000000e-01  -1.1064570e+00  -6.4820345e-01  -4.5825353e-01
   7.7100000e-01  -1.1451250e+00  -6.4749374e-01  -4.9763126e-01
   7.7200000e-01  -1.1351652e+00  -6.4686779e-01  -4.8829738e-01
   7.7300000e-01  -1.0774660e+00  -6.4630049e-01  -4.3116555e-01
   7.7400000e-01  -9.7728233e-01  -6.4545410e-01  -3.3182823e-01
   7.7500000e-01  -8.4467559e-01  -6.4466633e-01  -2.0000926e-01
   7.7600000e-01  -6.9257386e-01  -6.4396188e-01  -4.8611978e-02
   7.7700000e-01  -5.3577195e-01  -6.4331573e-01   1.0754378e-01
   7.7800000e-01  -3.8921931e-01  -6.4239172e-01   2.5317240e-01
   7.7900000e-01  -2.6750723e-01  -6.4152597e-01   3.7401875e-01
   7.8000000e-01  -1.8248953e-01  -6.4074306e-01   4.5825353e-01
   7.8100000e-01  -1.4238680e-01  -6.4001806e-01   4.9763126e-01
   7.8200000e-01  -1.5071916e-01  -6.3901654e-01   4.8829738e-01
   7.8300000e-01  -2.0690736e-01  -6.3807291e-01   4.3116555e-01
   7.8400000e-01  -3.0538333e-01  -6.3721157e-01   3.3182823e-01
   7.8500000e-01  -4.3639846e-01  -6.3640772e-01   2.0000926e-01
   7.8600000e-01  -5.8671685e-01  -6.3532883e-01   4.8611978e-02
   7.8700000e-01  -7.4185117e-01  -6.3430739e-01  -1.0754378e-01
   7.8800000e-01  -8.8654005e-01  -6.3336765e-01  -2.5317240e-01
   7.8900000e-01  -1.0065037e+00  -6.3248495e-01  -3.7401875e-01
   7.9000000e-01  -1.0895823e+00  -6.3132880e-01  -4.5825353e-01
   7.9100000e-01  -1.1278609e+00  -6.3022965e-01  -4.9763126e-01
   7.9200000e-01  -1.1175089e+00  -6.2921155e-01  -4.8829738e-01
   7.9300000e-01  -1.0594155e+00  -6.2824999e-01  -4.3116555e-01
   7.9400000e-01  -9.5884495e-01  -6.2701672e-01  -3.3182823e-01
   7.9500000e-01  -8.2584919e-01  -6.2583993e-01  -2.0000926e-01
   7.9600000e-01  -6.7335549e-01  -6.2474351e-01  -4.8611978e-02
   7.9700000e-01  -5.1615931e-01  -6.2370309e-01   1.0754378e-01
   7.9800000e-01  -3.6926261e-01  -6.2243502e-01   2.5317240e-01
   7.9900000e-01  -2.4718247e-01  -6.2120122e-01   3.7401875e-01
   8.0000000e-01  -1.6175817e-01  -6.2001170e-01   4.5825353e-01
   8.0100000e-01  -1.2121322e-01  -6.1884449e-01   4.9763126e-01
   8.0200000e-01  -1.2907973e-01  -6.1737712e-01   4.8829738e-01
   8.0300000e-01  -1.8483029e-01  -6.1599585e-01   4.3116555e-01
   8.0400000e-01  -2.8293562e-01  -6.1476385e-01   3.3182823e-01
   8.0500000e-01  -4.1366517e-01  -6.1367443e-01   2.0000926e-01
   8.0600000e-01  -5.6384744e-01  -6.1245942e-01   4.8611978e-02
   8.0700000e-01  -7.1878965e-01  -6.1124587e-01  -1.0754378e-01
   8.0800000e-01  -8.6306685e-01  -6.0989445e-01  -2.5317240e-01
   8.0900000e-01  -9.8221190e-01  -6.0819315e-01  -3.7401875e-01
   8.1000000e-01  -1.0639269e+00  -6.0567339e-01  -4.5825353e-01
   8.1100000e-01  -1.1000456e+00  -6.0241434e-01  -4.9763126e-01
   8.1200000e-01  -1.0865768e+00  -5.9827940e-01  -4.8829738e-01
   8.1300000e-01  -1.0243095e+00  -5.9314393e-01  -4.3116555e-01
   8.1400000e-01  -9.1852221e-01  -5.8669398e-01  -3.3182823e-01
   8.1500000e-01  -7.7923004e-01  -5.7922078e-01  -2.0000926e-01
   8.1600000e-01  -6.1942215e-01  -5.7081017e-01  -4.8611978e-02
   8.1700000e-01  -4.5399605e-01  -5.6153983e-01   1.0754378e-01
   8.1800000e-01  -2.9815529e-01  -5.5132769e-01   2.5317240e-01
   8.1900000e-01  -1.6640810e-01  -5.4042685e-01   3.7401875e-01
   8.2000000e-01  -7.0651550e-02  -5.2890508e-01   4.5825353e-01
   8.2100000e-01  -1.9154509e-02  -5.1678577e-01   4.9763126e-01
   8.2200000e-01  -1.5572422e-02  -5.0386981e-01   4.8829738e-01
   8.2300000e-01  -5.9276888e-02  -4.9044244e-01   4.3116555e-01
   8.2400000e-01  -1.4474055e-01  -4.7656879e-01   3.3182823e-01
   8.2500000e-01  -2.6227742e-01  -4.6228668e-01   2.0000926e-01
   8.2600000e-01  -3.9885406e-01  -4.4746603e-01   4.8611978e-02
   8.2700000e-01  -5.3989109e-01  -4.3234731e-01  -1.0754378e-01
   8.2800000e-01  -6.7016771e-01  -4.1699531e-01  -2.5317240e-01
   8.2900000e-01  -7.7546622e-01  -4.0144747e-01  -3.7401875e-01
   8.3000000e-01  -8.4382794e-01  -3.8557441e-01  -4.5825353e-01
   8.3100000e-01  -8.6724710e-01  -3.6961584e-01  -4.9763126e-01
   8.3200000e-01  -8.4193363e-01  -3.5363625e-01  -4.8829738e-01
   8.3300000e-01  -7.6883863e-01  -3.3767307e-01  -4.3116555e-01
   8.3400000e-01  -6.5342741e-01  -3.2159918e-01  -3.3182823e-01
   8.3500000e-01  -5.0566124e-01  -3.0565199e-01  -2.0000926e-01
   8.3600000e-01  -3.3850783e-01  -2.8989585e-01  -4.8611978e-02
   8.3700000e-01  -1.6682463e-01  -2.7436841e-01   1.0754378e-01
   8.3800000e-01  -5.7721543e-03  -2.5894456e-01   2.5317240e-01
   8.3900000e-01   1.3015903e-01  -2.4385972e-01   3.7401875e-01
   8.4000000e-01   2.2907518e-01  -2.2917835e-01   4.5825353e-01
   8.4100000e-01   2.8269286e-01  -2.1493840e-01   4.9763126e-01
   8.4200000e-01   2.8728260e-01  -2.0101479e-01   4.8829738e-01
   8.4300000e-01   2.4352257e-01  -1.8764299e-01   4.3116555e-01
   8.4400000e-01   1.5694026e-01  -1.7488797e-01   3.3182823e-01
   8.4500000e-01   3.7221279e-02  -1.6278798e-01   2.0000926e-01
   8.4600000e-01  -1.0259223e-01  -1.5120421e-01   4.8611978e-02
   8.4700000e-01  -2.4793483e-01  -1.4039105e-01  -1.0754378e-01
   8.4800000e-01  -3.8359012e-01  -1.3041772e-01  -2.5317240e-01
   8.4900000e-01  -4.9534080e-01  -1.2132205e-01  -3.7401875e-01
   8.5000000e-01  -5.7124031e-01  -1.1298678e-01  -4.5825353e-01
   8.5100000e-01  -6.0324523e-01  -1.0561396e-01  -4.9763126e-01
   8.5200000e-01  -5.8755253e-01  -9.9255144e-02  -4.8829738e-01
   8.5300000e-01  -5.2511111e-01  -9.3945556e-02  -4.3116555e-01
   8.5400000e-01  -4.2136226e-01  -8.9534027e-02  -3.3182823e-01
   8.5500000e-01  -2.8634893e-01  -8.6339673e-02  -2.0000926e-01
   8.5600000e-01  -1.3309769e-01  -8.4485717e-02  -4.8611978e-02
   8.5700000e-01   2.3480372e-02  -8.4063407e-02   1.0754378e-01
   8.5800000e-01   1.6819101e-01  -8.4981393e-02   2.5317240e-01
   8.5900000e-01   2.8654656e-01  -8.7472184e-02   3.7401875e-01
   8.6000000e-01   3.6668251e-01  -9.1571024e-02   4.5825353e-01
   8.6100000e-01   4.0037996e-01  -9.7251303e-02   4.9763126e-01
   8.6200000e-01   3.8403382e-01  -1.0426356e-01   4.8829738e-01
   8.6300000e-01   3.1841102e-01  -1.1275454e-01   4.3116555e-01
   8.6400000e-01   2.0916372e-01  -1.2266451e-01   3.3182823e-01
   8.6500000e-01   6.6113597e-02  -1.3389566e-01   2.0000926e-01
   8.6600000e-01  -9.7530089e-02  -1.4614207e-01   4.8611978e-02
   8.6700000e-01  -2.6709313e-01  -1.5954935e-01  -1.0754378e-01
   8.6800000e-01  -4.2723941e-01  -1.7406701e-01  -2.5317240e-01
   8.6900000e-01  -5.6363622e-01  -1.8961747e-01  -3.7401875e-01
   8.7000000e-01  -6.6418087e-01  -2.0592734e-01  -4.5825353e-01
   8.7100000e-01  -7.2077035e-01  -2.2313909e-01  -4.9763126e-01
   8.7200000e-01  -7.2950104e-01  -2.4120366e-01  -4.8829738e-01
   8.7300000e-01  -6.9120330e-01  -2.6003775e-01  -4.3116555e-01
   8.7400000e-01  -6.1116658e-01  -2.7933834e-01  -3.3182823e-01
   8.7500000e-01  -4.9927579e-01  -2.9926653e-01  -2.0000926e-01
   8.7600000e-01  -3.6838580e-01  -3.1977382e-01  -4.8611978e-02
   8.7700000e-01  -2.3323370e-01  -3.4077747e-01   1.0754378e-01
   8.7800000e-01  -1.0879989e-01  -3.6197229e-01   2.5317240e-01
   8.7900000e-01  -9.5028901e-03  -3.8352164e-01   3.7401875e-01
   8.8000000e-01   5.2875857e-02  -4.0537767e-01   4.5825353e-01
   8.8100000e-01   7.0173602e-02  -4.2745766e-01   4.9763126e-01
   8.8200000e-01   3.8846322e-02  -4.4945106e-01   4.8829738e-01
   8.8300000e-01  -4.0361082e-02  -4.7152664e-01   4.3116555e-01
   8.8400000e-01  -1.6180885e-01  -4.9363709e-01   3.3182823e-01
   8.8500000e-01  -3.1569005e-01  -5.1569931e-01   2.0000926e-01
   8.8600000e-01  -4.8878457e-01  -5.3739655e-01   4.8611978e-02
   8.8700000e-01  -6.6644755e-01  -5.5890377e-01  -1.0754378e-01
   8.8800000e-01  -8.3334636e-01  -5.8017396e-01  -2.5317240e-01
   8.8900000e-01  -9.7514215e-01  -6.0112341e-01  -3.7401875e-01
   8.9000000e-01  -1.0796842e+00  -6.2143064e-01  -4.5825353e-01
   8.9100000e-01  -1.1389065e+00  -6.4127528e-01  -4.9763126e-01
   8.9200000e-01  -1.1489076e+00  -6.6061017e-01  -4.8829738e-01
   8.9300000e-01  -1.1105165e+00  -6.7935096e-01  -4.3116555e-01
   8.9400000e-01  -1.0289456e+00  -6.9711734e-01  -3.3182823e-01
   8.9500000e-01  -9.1418662e-01  -7.1417737e-01  -2.0000926e-01
   8.9600000e-01  -7.7911386e-01  -7.3050188e-01  -4.8611978e-02
   8.9700000e-01  -6.3845920e-01  -7.4600298e-01   1.0754378e-01
   8.9800000e-01  -5.0716295e-01  -7.6033536e-01   2.5317240e-01
   8.9900000e-01  -3.9960962e-01  -7.7362837e-01   3.7401875e-01
   9.0000000e-01  -3.2753328e-01  -7.8578681e-01   4.5825353e-01
   9.0100000e-01  -2.9906918e-01  -7.9670044e-01   4.9763126e-01
   9.0200000e-01  -3.1767562e-01  -8.0597300e-01   4.8829738e-01
   9.0300000e-01  -3.8285596e-01  -8.1402151e-01   4.3116555e-01
   9.0400000e-01  -4.8917002e-01  -8.2099825e-01   3.3182823e-01
   9.0500000e-01  -6.2705511e-01  -8.2706437e-01   2.0000926e-01
   9.0600000e-01  -7.8346643e-01  -8.3207841e-01   4.8611978e-02
   9.0700000e-01  -9.4419413e-01  -8.3665035e-01  -1.0754378e-01
   9.0800000e-01  -1.0942117e+00  -8.4103930e-01  -2.5317240e-01
   9.0900000e-01  -1.2194280e+00  -8.4540922e-01  -3.7401875e-01
   9.1000000e-01  -1.3078095e+00  -8.4955594e-01  -4.5825353e-01
   9.1100000e-01  -1.3514798e+00  -8.5384856e-01  -4.9763126e-01
   9.1200000e-01  -1.3465930e+00  -8.5829561e-01  -4.8829738e-01
   9.1300000e-01  -1.2939789e+00  -8.6281333e-01  -4.3116555e-01
   9.1400000e-01  -1.1987054e+00  -8.6687717e-01  -3.3182823e-01
   9.1500000e-01  -1.0709355e+00  -8.7092627e-01  -2.0000926e-01
   9.1600000e-01  -9.2360005e-01  -8.7498807e-01  -4.8611978e-02
   9.1700000e-01  -7.7149966e-01  -8.7904343e-01   1.0754378e-01
   9.1800000e-01  -6.2954400e-01  -8.8271640e-01   2.5317240e-01
   9.1900000e-01  -5.1238325e-01  -8.8640200e-01   3.7401875e-01
   9.2000000e-01  -4.3187722e-01  -8.9013075e-01   4.5825353e-01
   9.2100000e-01  -3.9623503e-01  -8.9386629e-01   4.9763126e-01
   9.2200000e-01  -4.0885155e-01  -8.9714893e-01   4.8829738e-01
   9.2300000e-01  -4.6926539e-01  -9.0043094e-01   4.3116555e-01
   9.2400000e-01  -5.7191489e-01  -9.0374312e-01   3.3182823e-01
   9.2500000e-01  -7.0703939e-01  -9.0704865e-01   2.0000926e-01
   9.2600000e-01  -8.6127103e-01  -9.0988301e-01   4.8611978e-02
   9.2700000e-01  -1.0202470e+00  -9.1270326e-01  -1.0754378e-01
   9.2800000e-01  -1.1687128e+00  -9.1554043e-01  -2.5317240e-01
   9.2900000e-01  -1.2923760e+00  -9.1835726e-01  -3.7401875e-01
   9.3000000e-01  -1.3789390e+00  -9.2068542e-01  -4.5825353e-01
   9.3100000e-01  -1.4206170e+00  -9.2298577e-01  -4.9763126e-01
   9.3200000e-01  -1.4135868e+00  -9.2528945e-01  -4.8829738e-01
   9.3300000e-01  -1.3587244e+00  -9.2755887e-01  -4.3116555e-01
   9.3400000e-01  -1.2611615e+00  -9.2933330e-01  -3.3182823e-01
   9.3500000e-01  -1.1310699e+00  -9.3106064e-01  -2.0000926e-01
   9.3600000e-01  -9.8138072e-01  -9.3276874e-01  -4.8611978e-02
   9.3700000e-01  -8.2687646e-01  -9.3442024e-01   1.0754378e-01
   9.3800000e-01  -6.8236819e-01  -9.3554059e-01   2.5317240e-01
   9.3900000e-01  -5.6259483e-01  -9.3661358e-01   3.7401875e-01
   9.4000000e-01  -4.7942721e-01  -9.3768074e-01   4.5825353e-01
   9.4100000e-01  -4.4107684e-01  -9.3870811e-01   4.9763126e-01
   9.4200000e-01  -4.5093676e-01  -9.3923414e-01   4.8829738e-01
   9.4300000e-01  -5.0851022e-01  -9.3967578e-01   4.3116555e-01
   9.4400000e-01  -6.0819432e-01  -9.4002256e-01   3.3182823e-01
   9.4500000e-01  -7.4017997e-01  -9.4018923e-01   2.0000926e-01
   9.4600000e-01  -8.9104986e-01  -9.3966184e-01   4.8611978e-02
   9.4700000e-01  -1.0464016e+00  -9.3885782e-01  -1.0754378e-01
   9.4800000e-01  -1.1909490e+00  -9.3777661e-01  -2.5317240e-01
   9.4900000e-01  -1.3103831e+00  -9.3636433e-01  -3.7401875e-01
   9.5000000e-01  -1.3924096e+00  -9.3415603e-01  -4.5825353e-01
   9.5100000e-01  -1.4292577e+00  -9.3162640e-01  -4.9763126e-01
   9.5200000e-01  -1.4171312e+00  -9.2883385e-01  -4.8829738e-01
   9.5300000e-01  -1.3569420e+00  -9.2577640e-01  -4.3116555e-01
   9.5400000e-01  -1.2538731e+00  -9.2204483e-01  -3.3182823e-01
   9.5500000e-01  -1.1181160e+00  -9.1810678e-01  -2.0000926e-01
   9.5600000e-01  -9.6262775e-01  -9.1401577e-01  -4.8611978e-02
   9.5700000e-01  -8.0221184e-01  -9.0975562e-01   1.0754378e-01
   9.5800000e-01  -6.5171459e-01  -9.0488699e-01   2.5317240e-01
   9.5900000e-01  -5.2586712e-01  -8.9988586e-01   3.7401875e-01
   9.6000000e-01  -4.3655155e-01  -8.9480508e-01   4.5825353e-01
   9.6100000e-01  -3.9200088e-01  -8.8963215e-01   4.9763126e-01
   9.6200000e-01  -3.9564791e-01  -8.8394530e-01   4.8829738e-01
   9.6300000e-01  -4.4704387e-01  -8.7820943e-01   4.3116555e-01
   9.6400000e-01  -5.4064904e-01  -8.7247728e-01   3.3182823e-01
   9.6500000e-01  -6.6672689e-01  -8.6673615e-01   2.0000926e-01
   9.6600000e-01  -8.1194170e-01  -8.6055368e-01   4.8611978e-02
   9.6700000e-01  -9.6195445e-01  -8.5441067e-01  -1.0754378e-01
   9.6800000e-01  -1.1015355e+00  -8.4836315e-01  -2.5317240e-01
   9.6900000e-01  -1.2164165e+00  -8.4239779e-01  -3.7401875e-01
   9.7000000e-01  -1.2943955e+00  -8.3614200e-01  -4.5825353e-01
   9.7100000e-01  -1.3276018e+00  -8.2997058e-01  -4.9763126e-01
   9.7200000e-01  -1.3122078e+00  -8.2391046e-01  -4.8829738e-01
   9.7300000e-01  -1.2491128e+00  -8.1794725e-01  -4.3116555e-01
   9.7400000e-01  -1.1435130e+00  -8.1168474e-01  -3.3182823e-01
   9.7500000e-01  -1.0056616e+00  -8.0565238e-01  -2.0000926e-01
   9.7600000e-01  -8.4858906e-01  -7.9997708e-01  -4.8611978e-02
   9.7700000e-01  -6.8717090e-01  -7.9471468e-01   1.0754378e-01
   9.7800000e-01  -5.3833087e-01  -7.9150328e-01   2.5317240e-01
   9.7900000e-01  -4.1371024e-01  -7.8772898e-01   3.7401875e-01
   9.8000000e-01  -3.2444120e-01  -7.8269473e-01   4.5825353e-01
   9.8100000e-01  -2.7868147e-01  -7.7631274e-01   4.9763126e-01
   9.8200000e-01  -2.7771353e-01  -7.6601091e-01   4.8829738e-01
   9.8300000e-01  -3.2669391e-01  -7.5785947e-01   4.3116555e-01
   9.8400000e-01  -4.2225257e-01  -7.5408081e-01   3.3182823e-01
   9.8500000e-01  -5.5504477e-01  -7.5505403e-01   2.0000926e-01
   9.8600000e-01  -7.1513933e-01  -7.6375130e-01   4.8611978e-02
   9.8700000e-01  -8.7410502e-01  -7.6656125e-01  -1.0754378e-01
   9.8800000e-01  -1.0067611e+00  -7.5358871e-01  -2.5317240e-01
   9.8900000e-01  -1.0893374e+00  -7.1531862e-01  -3.7401875e-01
   9.9000000e-01  -1.0991984e+00  -6.4094492e-01  -4.5825353e-01
   9.9100000e-01  -1.0302573e+00  -5.3262600e-01  -4.9763126e-01
   9.9200000e-01  -8.8079637e-01  -3.9249899e-01  -4.8829738e-01
   9.9300000e-01  -6.5676483e-01  -2.2559927e-01  -4.3116555e-01
   9.9400000e-01  -3.7131211e-01  -3.9483872e-02  -3.3182823e-01
   9.9500000e-01  -3.9795300e-02   1.6021396e-01  -2.0000926e-01
   9.9600000e-01   3.1925816e-01   3.6787014e-01  -4.8611978e-02
   9.9700000e-01   6.8712836e-01   5.7958458e-01   1.0754378e-01
   9.9800000e-01   1.0456009e+00   7.9242851e-01   2.5317240e-01
   9.9900000e-01   1.3822266e+00   1.0082078e+00   3.7401875e-01
   1.0000000e+00   1.6868436e+00   1.2285901e+00   4.5825353e-01
   1.0010000e+00   1.9525144e+00   1.4548832e+00   4.9763126e-01
   1.0020000e+00   2.1746381e+00   1.6863407e+00   4.8829738e-01
   1.0030000e+00   2.3511544e+00   1.9199889e+00   4.3116555e-01
   1.0040000e+00   2.4808019e+00   2.1489736e+00   3.3182823e-01
   1.0050000e+00   2.5627133e+00   2.3627040e+00   2.0000926e-01
   1.0060000e+00   2.6001036e+00   2.5514917e+00   4.8611978e-02
   1.0070000e+00   2.5865592e+00   2.6941029e+00  -1.0754378e-01
   1.0080000e+00   2.5213862e+00   2.7745586e+00  -2.5317240e-01
   1.0090000e+00   2.4072443e+00   2.7812630e+00  -3.7401875e-01
   1.0100000e+00   2.2470969e+00   2.7053504e+00  -4.5825353e-01
   1.0110000e+00   2.0592887e+00   2.5569200e+00  -4.9763126e-01
   1.0120000e+00   1.8611036e+00   2.3494010e+00  -4.8829738e-01
   1.0130000e+00   1.6705284e+00   2.1016939e+00  -4.3116555e-01
   1.0140000e+00   1.5048040e+00   1.8366322e+00  -3.3182823e-01
   1.0150000e+00   1.3729537e+00   1.5729630e+00  -2.0000926e-01
   1.0160000e+00   1.2789797e+00   1.3275917e+00  -4.8611978e-02
   1.0170000e+00   1.2196177e+00   1.1120739e+00   1.0754378e-01
   1.0180000e+00   1.1889716e+00   9.3579925e-01   2.5317240e-01
   1.0190000e+00   1.1646318e+00   7.9061310e-01   3.7401875e-01
   1.0200000e+00   1.1262653e+00   6.6801180e-01   4.5825353e-01
   1.0210000e+00   1.0551786e+00   5.5754731e-01   4.9763126e-01
   1.0220000e+00   9.3268320e-01   4.4438581e-01   4.8829738e-01
   1.0230000e+00   7.6111361e-01   3.2994806e-01   4.3116555e-01
   1.0240000e+00   5.4539039e-01   2.1356216e-01   3.3182823e-01
   1.0250000e+00   2.9700451e-01   9.6995255e-02   2.0000926e-01
   1.0260000e+00   3.4298201e-02  -1.4313777e-02   4.8611978e-02
   1.0270000e+00  -2.2921386e-01  -1.2167008e-01  -1.0754378e-01
   1.0280000e+00  -4.7807812e-01  -2.2490571e-01  -2.5317240e-01
   1.0290000e+00  -6.9936486e-01  -3.2534611e-01  -3.7401875e-01
   1.0300000e+00  -8.8249249e-01  -4.2423896e-01  -4.5825353e-01
   1.0310000e+00  -1.0253449e+00  -5.2771368e-01  -4.9763126e-01
   1.0320000e+00  -1.1286359e+00  -6.4033847e-01  -4.8829738e-01
   1.0330000e+00  -1.1964062e+00  -7.6524064e-01  -4.3116555e-01
   1.0340000e+00  -1.2385873e+00  -9.0675904e-01  -3.3182823e-01
   1.0350000e+00  -1.2561466e+00  -1.0561374e+00  -2.0000926e-01
   1.0360000e+00  -1.2545972e+00  -1.2059852e+00  -4.8611978e-02
   1.0370000e+00  -1.2401281e+00  -1.3476719e+00   1.0754378e-01
   1.0380000e+00  -1.2182268e+00  -1.4713992e+00   2.5317240e-01
   1.0390000e+00  -1.1986380e+00  -1.5726568e+00   3.7401875e-01
   1.0400000e+00  -1.1896788e+00  -1.6479323e+00   4.5825353e-01
   1.0410000e+00  -1.1988424e+00  -1.6964737e+00   4.9763126e-01
   1.0420000e+00  -1.2307256e+00  -1.7190229e+00   4.8829738e-01
   1.0430000e+00  -1.2899758e+00  -1.7211413e+00   4.3116555e-01
   1.0440000e+00  -1.3764242e+00  -1.7082524e+00   3.3182823e-01
   1.0450000e+00  -1.4854497e+00  -1.6854590e+00   2.0000926e-01
   1.0460000e+00  -1.6107499e+00  -1.6593619e+00   4.8611978e-02
   1.0470000e+00  -1.7346700e+00  -1.6271262e+00  -1.0754378e-01
   1.0480000e+00  -1.8404151e+00  -1.5872427e+00  -2.5317240e-01
   1.0490000e+00  -1.9115472e+00  -1.5375284e+00  -3.7401875e-01
   1.0500000e+00  -1.9316485e+00  -1.4733950e+00  -4.5825353e-01
   1.0510000e+00  -1.8963233e+00  -1.3986921e+00  -4.9763126e-01
   1.0520000e+00  -1.8041050e+00  -1.3158076e+00  -4.8829738e-01
   1.0530000e+00  -1.6593469e+00  -1.2281814e+00  -4.3116555e-01
   1.0540000e+00  -1.4727737e+00  -1.1409454e+00  -3.3182823e-01
   1.0550000e+00  -1.2562510e+00  -1.0562417e+00  -2.0000926e-01
   1.0560000e+00  -1.0256344e+00  -9.7702242e-01  -4.8611978e-02
   1.0570000e+00  -7.9809021e-01  -9.0563399e-01   1.0754378e-01
   1.0580000e+00  -5.8979587e-01  -8.4296827e-01   2.5317240e-01
   1.0590000e+00  -4.1683986e-01  -7.9085861e-01   3.7401875e-01
   1.0600000e+00  -2.9123565e-01  -7.4948918e-01   4.5825353e-01
   1.0610000e+00  -2.2047120e-01  -7.1810246e-01   4.9763126e-01
   1.0620000e+00  -2.0687173e-01  -6.9516911e-01   4.8829738e-01
   1.0630000e+00  -2.4736485e-01  -6.7853040e-01   4.3116555e-01
   1.0640000e+00  -3.3398674e-01  -6.6581498e-01   3.3182823e-01
   1.0650000e+00  -4.5478609e-01  -6.5479534e-01   2.0000926e-01
   1.0660000e+00  -5.9395698e-01  -6.4256896e-01   4.8611978e-02
   1.0670000e+00  -7.3745655e-01  -6.2991277e-01  -1.0754378e-01
   1.0680000e+00  -8.7017152e-01  -6.1699912e-01  -2.5317240e-01
   1.0690000e+00  -9.7834439e-01  -6.0432564e-01  -3.7401875e-01
   1.0700000e+00  -1.0509402e+00  -5.9268664e-01  -4.5825353e-01
   1.0710000e+00  -1.0797542e+00  -5.8212293e-01  -4.9763126e-01
   1.0720000e+00  -1.0609416e+00  -5.7264420e-01  -4.8829738e-01
   1.0730000e+00  -9.9518181e-01  -5.6401625e-01  -4.3116555e-01
   1.0740000e+00  -8.8690714e-01  -5.5507891e-01  -3.3182823e-01
   1.0750000e+00  -7.4665929e-01  -5.4665004e-01  -2.0000926e-01
   1.0760000e+00  -5.8732241e-01  -5.3871043e-01  -4.8611978e-02
   1.0770000e+00  -4.2364630e-01  -5.3119008e-01   1.0754378e-01
   1.0780000e+00  -2.7053426e-01  -5.2370666e-01   2.5317240e-01
   1.0790000e+00  -1.4254334e-01  -5.1656208e-01   3.7401875e-01
   1.0800000e+00  -5.1485514e-02  -5.0973904e-01   4.5825353e-01
   1.0810000e+00  -5.5387590e-03  -5.0317002e-01   4.9763126e-01
   1.0820000e+00  -8.2177722e-03  -4.9651516e-01   4.8829738e-01
   1.0830000e+00  -5.8845103e-02  -4.9001066e-01   4.3116555e-01
   1.0840000e+00  -1.5179378e-01  -4.8362201e-01   3.3182823e-01
   1.0850000e+00  -2.7726972e-01  -4.7727898e-01   2.0000926e-01
   1.0860000e+00  -4.2205314e-01  -4.7066512e-01   4.8611978e-02
   1.0870000e+00  -5.7158825e-01  -4.6404447e-01  -1.0754378e-01
   1.0880000e+00  -7.1060923e-01  -4.5743683e-01  -2.5317240e-01
   1.0890000e+00  -8.2485858e-01  -4.5083984e-01  -3.7401875e-01
   1.0900000e+00  -9.0227817e-01  -4.4402464e-01  -4.5825353e-01
   1.0910000e+00  -9.3492683e-01  -4.3729556e-01  -4.9763126e-01
   1.0920000e+00  -9.1901253e-01  -4.3071514e-01  -4.8829738e-01
   1.0930000e+00  -8.5546948e-01  -4.2430393e-01  -4.3116555e-01
   1.0940000e+00  -7.4969448e-01  -4.1786624e-01  -3.3182823e-01
   1.0950000e+00  -6.1164011e-01  -4.1163086e-01  -2.0000926e-01
   1.0960000e+00  -4.5421803e-01  -4.0560605e-01  -4.8611978e-02
   1.0970000e+00  -2.9221436e-01  -3.9975814e-01   1.0754378e-01
   1.0980000e+00  -1.4066088e-01  -3.9383328e-01   2.5317240e-01
   1.0990000e+00  -1.4040525e-02  -3.8805927e-01   3.7401875e-01
   1.1000000e+00   7.5806585e-02  -3.8244694e-01   4.5825353e-01
   1.1010000e+00   1.2065258e-01  -3.7697868e-01   4.9763126e-01
   1.1020000e+00   1.1684363e-01  -3.7145376e-01   4.8829738e-01
   1.1030000e+00   6.5094829e-02  -3.6607073e-01   4.3116555e-01
   1.1040000e+00  -2.9011810e-02  -3.6084005e-01   3.3182823e-01
   1.1050000e+00  -1.5573252e-01  -3.5574178e-01   2.0000926e-01
   1.1060000e+00  -3.0196054e-01  -3.5057251e-01   4.8611978e-02
   1.1070000e+00  -4.5307188e-01  -3.4552810e-01  -1.0754378e-01
   1.1080000e+00  -5.9379052e-01  -3.4061812e-01  -2.5317240e-01
   1.1090000e+00  -7.0984239e-01  -3.3582365e-01  -3.7401875e-01
   1.1100000e+00  -7.8920738e-01  -3.3095385e-01  -4.5825353e-01
   1.1110000e+00  -8.2382328e-01  -3.2619202e-01  -4.9763126e-01
   1.1120000e+00  -8.0984428e-01  -3.2154689e-01  -4.8829738e-01
   1.1130000e+00  -7.4816607e-01  -3.1700052e-01  -4.3116555e-01
   1.1140000e+00  -6.4420227e-01  -3.1237404e-01  -3.3182823e-01
   1.1150000e+00  -5.0784803e-01  -3.0783877e-01  -2.0000926e-01
   1.1160000e+00  -3.5201462e-01  -3.0340264e-01  -4.8611978e-02
   1.1170000e+00  -1.9150482e-01  -2.9904860e-01   1.0754378e-01
   1.1180000e+00  -4.1436931e-02  -2.9460933e-01   2.5317240e-01
   1.1190000e+00   8.3774114e-02  -2.9024463e-01   3.7401875e-01
   1.1200000e+00   1.7229191e-01  -2.8596162e-01   4.5825353e-01
   1.1210000e+00   2.1588714e-01  -2.8174413e-01   4.9763126e-01
   1.1220000e+00   2.1086137e-01  -2.7743601e-01   4.8829738e-01
   1.1230000e+00   1.5797966e-01  -2.7318589e-01   4.3116555e-01
   1.1240000e+00   6.2828130e-02  -2.6900011e-01   3.3182823e-01
   1.1250000e+00  -6.4854058e-02  -2.6486331e-01   2.0000926e-01
   1.1260000e+00  -2.1201836e-01  -2.6063033e-01   4.8611978e-02
   1.1270000e+00  -3.6398261e-01  -2.5643884e-01  -1.0754378e-01
   1.1280000e+00  -5.0546676e-01  -2.5229436e-01  -2.5317240e-01
   1.1290000e+00  -6.2220113e-01  -2.4818238e-01  -3.7401875e-01
   1.1300000e+00  -7.0222210e-01  -2.4396857e-01  -4.5825353e-01
   1.1310000e+00  -7.3741101e-01  -2.3977975e-01  -4.9763126e-01
   1.1320000e+00  -7.2391803e-01  -2.3562065e-01  -4.8829738e-01
   1.1330000e+00  -6.6264310e-01  -2.3147755e-01  -4.3116555e-01
   1.1340000e+00  -5.5905522e-01  -2.2722698e-01  -3.3182823e-01
   1.1350000e+00  -4.2299416e-01  -2.2298491e-01  -2.0000926e-01
   1.1360000e+00  -2.6736722e-01  -2.1875524e-01  -4.8611978e-02
   1.1370000e+00  -1.0698126e-01  -2.1452504e-01   1.0754378e-01
   1.1380000e+00   4.2990557e-02  -2.1018184e-01   2.5317240e-01
   1.1390000e+00   1.6818814e-01  -2.0583060e-01   3.7401875e-01
   1.1400000e+00   2.5677913e-01  -2.0147440e-01   4.5825353e-01
   1.1410000e+00   3.0053019e-01  -1.9710108e-01   4.9763126e-01
   1.1420000e+00   2.9568797e-01  -1.9260942e-01   4.8829738e-01
   1.1430000e+00   2.4307243e-01  -1.8809312e-01   4.3116555e-01
   1.1440000e+00   1.4827385e-01  -1.8355439e-01   3.3182823e-01
   1.1450000e+00   2.1027375e-02  -1.7898188e-01   2.0000926e-01
   1.1460000e+00  -1.2567399e-01  -1.7428597e-01   4.8611978e-02
   1.1470000e+00  -2.7709252e-01  -1.6954874e-01  -1.0754378e-01
   1.1480000e+00  -4.1794388e-01  -1.6477148e-01  -2.5317240e-01
   1.1490000e+00  -5.3396242e-01  -1.5994367e-01  -3.7401875e-01
   1.1500000e+00  -6.1324129e-01  -1.5498776e-01  -4.5825353e-01
   1.1510000e+00  -6.4760502e-01  -1.4997375e-01  -4.9763126e-01
   1.1520000e+00  -6.3319933e-01  -1.4490194e-01  -4.8829738e-01
   1.1530000e+00  -5.7092822e-01  -1.3976267e-01  -4.3116555e-01
   1.1540000e+00  -4.6632597e-01  -1.3449773e-01  -3.3182823e-01
   1.1550000e+00  -3.2916360e-01  -1.2915435e-01  -2.0000926e-01
   1.1560000e+00  -1.7234159e-01  -1.2372961e-01  -4.8611978e-02
   1.1570000e+00  -1.0671313e-02  -1.1821509e-01   1.0754378e-01
   1.1580000e+00   1.4061370e-01  -1.1255870e-01   2.5317240e-01
   1.1590000e+00   2.6720331e-01  -1.0681544e-01   3.7401875e-01
   1.1600000e+00   3.5726356e-01  -1.0098997e-01   4.5825353e-01
   1.1610000e+00   4.0255410e-01  -9.5077167e-02   4.9763126e-01
   1.1620000e+00   3.9924989e-01  -8.9047490e-02   4.8829738e-01
   1.1630000e+00   3.4826585e-01  -8.2899704e-02   4.3116555e-01
   1.1640000e+00   2.5522368e-01  -7.6604556e-02   3.3182823e-01
   1.1650000e+00   1.2988414e-01  -7.0125112e-02   2.0000926e-01
   1.1660000e+00  -1.4801560e-02  -6.3413538e-02   4.8611978e-02
   1.1670000e+00  -1.6399455e-01  -5.6450766e-02  -1.0754378e-01
   1.1680000e+00  -3.0238246e-01  -4.9210057e-02  -2.5317240e-01
   1.1690000e+00  -4.1569155e-01  -4.1672804e-02  -3.7401875e-01
   1.1700000e+00  -4.9208804e-01  -3.3834512e-02  -4.5825353e-01
   1.1710000e+00  -5.2332772e-01  -2.5696451e-02  -4.9763126e-01
   1.1720000e+00  -5.0556480e-01  -1.7267414e-02  -4.8829738e-01
   1.1730000e+00  -4.3972820e-01  -8.5626447e-03  -4.3116555e-01
   1.1740000e+00  -3.3145775e-01   3.7048118e-04  -3.3182823e-01
   1.1750000e+00  -1.9045772e-01   9.5515340e-03  -2.0000926e-01
   1.1760000e+00  -2.9636002e-02   1.8975976e-02  -4.8611978e-02
   1.1770000e+00   1.3618013e-01   2.8636351e-02   1.0754378e-01
   1.1780000e+00   2.9166044e-01   3.8488040e-02   2.5317240e-01
   1.1790000e+00   4.2258038e-01   4.8561630e-02   3.7401875e-01
   1.1800000e+00   5.1710785e-01   5.8854322e-02   4.5825353e-01
   1.1810000e+00   5.6698643e-01   6.9355168e-02   4.9763126e-01
   1.1820000e+00   5.6828882e-01   7.9991437e-02   4.8829738e-01
   1.1830000e+00   5.2198338e-01   9.0817827e-02   4.3116555e-01
   1.1840000e+00   4.3366120e-01   1.0183296e-01   3.3182823e-01
   1.1850000e+00   3.1303405e-01   1.1302479e-01   2.0000926e-01
   1.1860000e+00   1.7291481e-01   1.2430283e-01   4.8611978e-02
   1.1870000e+00   2.8195791e-02   1.3573957e-01  -1.0754378e-01
   1.1880000e+00  -1.0583728e-01   1.4733512e-01  -2.5317240e-01
   1.1890000e+00  -2.1494254e-01   1.5907621e-01  -3.7401875e-01
   1.1900000e+00  -2.8740020e-01   1.7085333e-01  -4.5825353e-01
   1.1910000e+00  -3.1487326e-01   1.8275801e-01  -4.9763126e-01
   1.1920000e+00  -2.9350548e-01   1.9479191e-01  -4.8829738e-01
   1.1930000e+00  -2.2422515e-01   2.0694041e-01  -4.3116555e-01
   1.1940000e+00  -1.1275421e-01   2.1907402e-01  -3.3182823e-01
   1.1950000e+00   3.1295025e-02   2.3130428e-01  -2.0000926e-01
   1.1960000e+00   1.9502244e-01   2.4363442e-01  -4.8611978e-02
   1.1970000e+00   3.6359215e-01   2.5604837e-01   1.0754378e-01
   1.1980000e+00   5.2156842e-01   2.6839602e-01   2.5317240e-01
   1.1990000e+00   6.5482829e-01   2.8080954e-01   3.7401875e-01
   1.2000000e+00   7.5154728e-01   2.9329375e-01   4.5825353e-01
   1.2010000e+00   8.0346235e-01   3.0583108e-01   4.9763126e-01
   1.2020000e+00   8.0654780e-01   3.1825041e-01   4.8829738e-01
   1.2030000e+00   7.6187049e-01   3.3070494e-01   4.3116555e-01
   1.2040000e+00   6.7502924e-01   3.4320101e-01   3.3182823e-01
   1.2050000e+00   5.5572878e-01   3.5571953e-01   2.0000926e-01
   1.2060000e+00   4.1668029e-01   3.6806831e-01   4.8611978e-02
   1.2070000e+00   2.7287783e-01   3.8042161e-01  -1.0754378e-01
   1.2080000e+00   1.3961489e-01   3.9278730e-01  -2.5317240e-01
   1.2090000e+00   3.1125950e-02   4.0514470e-01  -3.7401875e-01
   1.2100000e+00  -4.0972711e-02   4.1728082e-01  -4.5825353e-01
   1.2110000e+00  -6.8240559e-02   4.2939071e-01  -4.9763126e-01
   1.2120000e+00  -4.6813675e-02   4.4148371e-01  -4.8829738e-01
   1.2130000e+00   2.2372018e-02   4.5353757e-01  -4.3116555e-01
   1.2140000e+00   1.3349079e-01   4.6531903e-01  -3.3182823e-01
   1.2150000e+00   2.7703412e-01   4.7704338e-01  -2.0000926e-01
   1.2160000e+00   4.4010937e-01   4.8872135e-01  -4.8611978e-02
   1.2170000e+00   6.0787292e-01   5.0032914e-01   1.0754378e-01
   1.2180000e+00   7.6478644e-01   5.1161404e-01   2.5317240e-01
   1.2190000e+00   8.9682951e-01   5.2281077e-01   3.7401875e-01
   1.2200000e+00   9.9218485e-01   5.3393132e-01   4.5825353e-01
   1.2210000e+00   1.0425817e+00   5.4495039e-01   4.9763126e-01
   1.2220000e+00   1.0438943e+00   5.5559696e-01   4.8829738e-01
   1.2230000e+00   9.9728957e-01   5.6612402e-01   4.3116555e-01
   1.2240000e+00   9.0837296e-01   5.7654472e-01   3.3182823e-01
   1.2250000e+00   7.8684155e-01   5.8683230e-01   2.0000926e-01
   1.2260000e+00   6.4531087e-01   5.9669889e-01   4.8611978e-02
   1.2270000e+00   4.9887051e-01   6.0641429e-01  -1.0754378e-01
   1.2280000e+00   3.6282025e-01   6.1599266e-01  -2.5317240e-01
   1.2290000e+00   2.5138711e-01   6.2540585e-01  -3.7401875e-01
   1.2300000e+00   1.7609739e-01   6.3435092e-01  -4.5825353e-01
   1.2310000e+00   1.4548145e-01   6.4311271e-01  -4.9763126e-01
   1.2320000e+00   1.6340884e-01   6.5170622e-01  -4.8829738e-01
   1.2330000e+00   2.2893650e-01   6.6010205e-01  -4.3116555e-01
   1.2340000e+00   3.3615593e-01   6.6798416e-01  -3.3182823e-01
   1.2350000e+00   4.7564119e-01   6.7565045e-01  -2.0000926e-01
   1.2360000e+00   6.3450454e-01   6.8311652e-01  -4.8611978e-02
   1.2370000e+00   7.9789564e-01   6.9035186e-01   1.0754378e-01
   1.2380000e+00   9.5020212e-01   6.9702972e-01   2.5317240e-01
   1.2390000e+00   1.0774774e+00   7.0345863e-01   3.7401875e-01
   1.2400000e+00   1.1679082e+00   7.0965465e-01   4.5825353e-01
   1.2410000e+00   1.2132176e+00   7.1558629e-01   4.9763126e-01
   1.2420000e+00   1.2091996e+00   7.2090221e-01   4.8829738e-01
   1.2430000e+00   1.1571095e+00   7.2594393e-01   4.3116555e-01
   1.2440000e+00   1.0625612e+00   7.3073301e-01   3.3182823e-01
   1.2450000e+00   9.3524556e-01   7.3523630e-01   2.0000926e-01
   1.2460000e+00   7.8772067e-01   7.3910869e-01   4.8611978e-02
   1.2470000e+00   6.3511068e-01   7.4265446e-01  -1.0754378e-01
   1.2480000e+00   4.9270343e-01   7.4587583e-01  -2.5317240e-01
   1.2490000e+00   3.7471414e-01   7.4873289e-01  -3.7401875e-01
   1.2500000e+00   2.9260608e-01   7.5085961e-01  -4.5825353e-01
   1.2510000e+00   2.5502198e-01   7.5265325e-01  -4.9763126e-01
   1.2520000e+00   2.6589233e-01   7.5418972e-01  -4.8829738e-01
   1.2530000e+00   3.2434149e-01   7.5550704e-01  -4.3116555e-01
   1.2540000e+00   4.2448336e-01   7.5631159e-01  -3.3182823e-01
   1.2550000e+00   5.5703490e-01   7.5704415e-01  -2.0000926e-01
   1.2560000e+00   7.0918722e-01   7.5779920e-01  -4.8611978e-02
   1.2570000e+00   8.6614598e-01   7.5860220e-01   1.0754378e-01
   1.2580000e+00   1.0123679e+00   7.5919554e-01   2.5317240e-01
   1.2590000e+00   1.1338588e+00   7.5984009e-01   3.7401875e-01
   1.2600000e+00   1.2187838e+00   7.6053022e-01   4.5825353e-01
   1.2610000e+00   1.2588526e+00   7.6122130e-01   4.9763126e-01
   1.2620000e+00   1.2497972e+00   7.6149982e-01   4.8829738e-01
   1.2630000e+00   1.1930163e+00   7.6185076e-01   4.3116555e-01
   1.2640000e+00   1.0941905e+00   7.6236228e-01   3.3182823e-01
   1.2650000e+00   9.6304383e-01   7.6303458e-01   2.0000926e-01
   1.2660000e+00   8.1219712e-01   7.6358514e-01   4.8611978e-02
   1.2670000e+00   6.5651846e-01   7.6406224e-01  -1.0754378e-01
   1.2680000e+00   5.1104782e-01   7.6422022e-01  -2.5317240e-01
   1.2690000e+00   3.8969354e-01   7.6371228e-01  -3.7401875e-01
   1.2700000e+00   3.0364716e-01   7.6190069e-01  -4.5825353e-01
   1.2710000e+00   2.6112098e-01   7.5875225e-01  -4.9763126e-01
   1.2720000e+00   2.6571405e-01   7.5401143e-01  -4.8829738e-01
   1.2730000e+00   3.1629622e-01   7.4746177e-01  -4.3116555e-01
   1.2740000e+00   4.0688024e-01   7.3870847e-01  -3.3182823e-01
   1.2750000e+00   5.2805335e-01   7.2806261e-01  -2.0000926e-01
   1.2760000e+00   6.6702067e-01   7.1563265e-01  -4.8611978e-02
   1.2770000e+00   8.0908019e-01   7.0153641e-01   1.0754378e-01
   1.2780000e+00   9.3894539e-01   6.8577298e-01   2.5317240e-01
   1.2790000e+00   1.0425999e+00   6.6858115e-01   3.7401875e-01
   1.2800000e+00   1.1082927e+00   6.5003912e-01   4.5825353e-01
   1.2810000e+00   1.1278067e+00   6.3017547e-01   4.9763126e-01
   1.2820000e+00   1.0971020e+00   6.0880463e-01   4.8829738e-01
   1.2830000e+00   1.0173752e+00   5.8620968e-01   4.3116555e-01
   1.2840000e+00   8.9429150e-01   5.6246326e-01   3.3182823e-01
   1.2850000e+00   7.3762746e-01   5.3761820e-01   2.0000926e-01
   1.2860000e+00   5.6022777e-01   5.1161580e-01   4.8611978e-02
   1.2870000e+00   3.7710802e-01   4.8465180e-01  -1.0754378e-01
   1.2880000e+00   2.0362443e-01   4.5679683e-01  -2.5317240e-01
   1.2890000e+00   5.4085137e-02   4.2810388e-01  -3.7401875e-01
   1.2900000e+00  -5.9720684e-02   3.9853285e-01  -4.5825353e-01
   1.2910000e+00  -1.2937058e-01   3.6826069e-01  -4.9763126e-01
   1.2920000e+00  -1.5094171e-01   3.3735568e-01  -4.8829738e-01
   1.2930000e+00  -1.2529378e-01   3.0587177e-01  -4.3116555e-01
   1.2940000e+00  -5.8034055e-02   2.7379418e-01  -3.3182823e-01
   1.2950000e+00   4.1265161e-02   2.4127442e-01  -2.0000926e-01
   1.2960000e+00   1.5976624e-01   2.0837821e-01  -4.8611978e-02
   1.2970000e+00   2.8270491e-01   1.7516113e-01   1.0754378e-01
   1.2980000e+00   3.9481061e-01   1.4163821e-01   2.5317240e-01
   1.2990000e+00   4.8194980e-01   1.0793105e-01   3.7401875e-01
   1.3000000e+00   5.3235637e-01   7.4102840e-02   4.5825353e-01
   1.3010000e+00   5.3784249e-01   4.0211228e-02   4.9763126e-01
   1.3020000e+00   4.9460071e-01   6.3033306e-03   4.8829738e-01
   1.3030000e+00   4.0363420e-01  -2.7531350e-02   4.3116555e-01
   1.3040000e+00   2.7059620e-01  -6.1232037e-02   3.3182823e-01
   1.3050000e+00   1.0527058e-01  -9.4738676e-02   2.0000926e-01
   1.3060000e+00  -7.9360065e-02  -1.2797204e-01   4.8611978e-02
   1.3070000e+00  -2.6841850e-01  -1.6087472e-01  -1.0754378e-01
   1.3080000e+00  -4.4656041e-01  -1.9338801e-01  -2.5317240e-01
   1.3090000e+00  -5.9946806e-01  -2.2544932e-01  -3.7401875e-01
   1.3100000e+00  -7.1520304e-01  -2.5694951e-01  -4.5825353e-01
   1.3110000e+00  -7.8549225e-01  -2.8786099e-01  -4.9763126e-01
   1.3120000e+00  -8.0642406e-01  -3.1812667e-01  -4.8829738e-01
   1.3130000e+00  -7.7884698e-01  -3.4768143e-01  -4.3116555e-01
   1.3140000e+00  -7.0821889e-01  -3.7639066e-01  -3.3182823e-01
   1.3150000e+00  -6.0426135e-01  -4.0425210e-01  -2.0000926e-01
   1.3160000e+00  -4.7982160e-01  -4.3120963e-01  -4.8611978e-02
   1.3170000e+00  -3.4965197e-01  -4.5719575e-01   1.0754378e-01
   1.3180000e+00  -2.2888469e-01  -4.8205709e-01   2.5317240e-01
   1.3190000e+00  -1.3179123e-01  -5.0580998e-01   3.7401875e-01
   1.3200000e+00  -7.0144928e-02  -5.2839846e-01   4.5825353e-01
   1.3210000e+00  -5.2121748e-02  -5.4975301e-01   4.9763126e-01
   1.3220000e+00  -8.1333811e-02  -5.6963120e-01   4.8829738e-01
   1.3230000e+00  -1.5701328e-01  -5.8817884e-01   4.3116555e-01
   1.3240000e+00  -2.7353658e-01  -6.0536482e-01   3.3182823e-01
   1.3250000e+00  -4.2110470e-01  -6.2111396e-01   2.0000926e-01
   1.3260000e+00  -5.8661828e-01  -6.3523026e-01   4.8611978e-02
   1.3270000e+00  -7.5521274e-01  -6.4766896e-01  -1.0754378e-01
   1.3280000e+00  -9.1147973e-01  -6.5830733e-01  -2.5317240e-01
   1.3290000e+00  -1.0410581e+00  -6.6703932e-01  -3.7401875e-01
   1.3300000e+00  -1.1318479e+00  -6.7359439e-01  -4.5825353e-01
   1.3310000e+00  -1.1759644e+00  -6.7833317e-01  -4.9763126e-01
   1.3320000e+00  -1.1697735e+00  -6.8147609e-01  -4.8829738e-01
   1.3330000e+00  -1.1144554e+00  -6.8328983e-01  -4.3116555e-01
   1.3340000e+00  -1.0156856e+00  -6.8385738e-01  -3.3182823e-01
   1.3350000e+00  -8.8379090e-01  -6.8378164e-01  -2.0000926e-01
   1.3360000e+00  -7.3202338e-01  -6.8341140e-01  -4.8611978e-02
   1.3370000e+00  -5.7545407e-01  -6.8299785e-01   1.0754378e-01
   1.3380000e+00  -4.2934593e-01  -6.8251833e-01   2.5317240e-01
   1.3390000e+00  -3.0821570e-01  -6.8223445e-01   3.7401875e-01
   1.3400000e+00  -2.2388942e-01  -6.8214295e-01   4.5825353e-01
   1.3410000e+00  -1.8452023e-01  -6.8215149e-01   4.9763126e-01
   1.3420000e+00  -1.9350733e-01  -6.8180472e-01   4.8829738e-01
   1.3430000e+00  -2.5028635e-01  -6.8145190e-01   4.3116555e-01
   1.3440000e+00  -3.4928779e-01  -6.8111602e-01   3.3182823e-01
   1.3450000e+00  -4.8078584e-01  -6.8079509e-01   2.0000926e-01
   1.3460000e+00  -6.3163336e-01  -6.8024534e-01   4.8611978e-02
   1.3470000e+00  -7.8729307e-01  -6.7974930e-01  -1.0754378e-01
   1.3480000e+00  -9.3250609e-01  -6.7933369e-01  -2.5317240e-01
   1.3490000e+00  -1.0529918e+00  -6.7897301e-01  -3.7401875e-01
   1.3500000e+00  -1.1365675e+00  -6.7831402e-01  -4.5825353e-01
   1.3510000e+00  -1.1753426e+00  -6.7771136e-01  -4.9763126e-01
   1.3520000e+00  -1.1654891e+00  -6.7719172e-01  -4.8829738e-01
   1.3530000e+00  -1.1078952e+00  -6.7672960e-01  -4.3116555e-01
   1.3540000e+00  -1.0078008e+00  -6.7597252e-01  -3.3182823e-01
   1.3550000e+00  -8.7528364e-01  -6.7527438e-01  -2.0000926e-01
   1.3560000e+00  -7.2327374e-01  -6.7466176e-01  -4.8611978e-02
   1.3570000e+00  -5.6656542e-01  -6.7410920e-01   1.0754378e-01
   1.3580000e+00  -4.2009281e-01  -6.7326521e-01   2.5317240e-01
   1.3590000e+00  -2.9846395e-01  -6.7248270e-01   3.7401875e-01
   1.3600000e+00  -2.1353462e-01  -6.7178815e-01   4.5825353e-01
   1.3610000e+00  -1.7352491e-01  -6.7115618e-01   4.9763126e-01
   1.3620000e+00  -1.8193904e-01  -6.7023642e-01   4.8829738e-01
   1.3630000e+00  -2.3821509e-01  -6.6938065e-01   4.3116555e-01
   1.3640000e+00  -3.3678700e-01  -6.6861524e-01   3.3182823e-01
   1.3650000e+00  -4.6790561e-01  -6.6791487e-01   2.0000926e-01
   1.3660000e+00  -6.1831851e-01  -6.6693049e-01   4.8611978e-02
   1.3670000e+00  -7.7355635e-01  -6.6601257e-01  -1.0754378e-01
   1.3680000e+00  -9.1835976e-01  -6.6518736e-01  -2.5317240e-01
   1.3690000e+00  -1.0384484e+00  -6.6442963e-01  -3.7401875e-01
   1.3700000e+00  -1.1216453e+00  -6.6339177e-01  -4.5825353e-01
   1.3710000e+00  -1.1600541e+00  -6.6242279e-01  -4.9763126e-01
   1.3720000e+00  -1.1498462e+00  -6.6154885e-01  -4.8829738e-01
   1.3730000e+00  -1.0919104e+00  -6.6074482e-01  -4.3116555e-01
   1.3740000e+00  -9.9149282e-01  -6.5966459e-01  -3.3182823e-01
   1.3750000e+00  -8.5866492e-01  -6.5865567e-01  -2.0000926e-01
   1.3760000e+00  -7.0635605e-01  -6.5774407e-01  -4.8611978e-02
   1.3770000e+00  -5.4936099e-01  -6.5690477e-01   1.0754378e-01
   1.3780000e+00  -4.0262090e-01  -6.5579330e-01   2.5317240e-01
   1.3790000e+00  -2.8073678e-01  -6.5475553e-01   3.7401875e-01
   1.3800000e+00  -1.9556382e-01  -6.5381735e-01   4.5825353e-01
   1.3810000e+00  -1.5532259e-01  -6.5295385e-01   4.9763126e-01
   1.3820000e+00  -1.6352485e-01  -6.5182224e-01   4.8829738e-01
   1.3830000e+00  -2.1960115e-01  -6.5076671e-01   4.3116555e-01
   1.3840000e+00  -3.1798479e-01  -6.4981302e-01   3.3182823e-01
   1.3850000e+00  -4.4892715e-01  -6.4893640e-01   2.0000926e-01
   1.3860000e+00  -5.9918377e-01  -6.4779575e-01   4.8611978e-02
   1.3870000e+00  -7.5427733e-01  -6.4673355e-01  -1.0754378e-01
   1.3880000e+00  -8.9894785e-01  -6.4577545e-01  -2.5317240e-01
   1.3890000e+00  -1.0189155e+00  -6.4489678e-01  -3.7401875e-01
   1.3900000e+00  -1.1020117e+00  -6.4375817e-01  -4.5825353e-01
   1.3910000e+00  -1.1403317e+00  -6.4270040e-01  -4.9763126e-01
   1.3920000e+00  -1.1300463e+00  -6.4174896e-01  -4.8829738e-01
   1.3930000e+00  -1.0720449e+00  -6.4087934e-01  -4.3116555e-01
   1.3940000e+00  -9.7158209e-01  -6.3975385e-01  -3.3182823e-01
   1.3950000e+00  -8.3872083e-01  -6.3871158e-01  -2.0000926e-01
   1.3960000e+00  -6.8638988e-01  -6.3777790e-01  -4.8611978e-02
   1.3970000e+00  -5.2938464e-01  -6.3692841e-01   1.0754378e-01
   1.3980000e+00  -3.8265473e-01  -6.3582713e-01   2.5317240e-01
   1.3990000e+00  -2.6079269e-01  -6.3481144e-01   3.7401875e-01
   1.4000000e+00  -1.7565308e-01  -6.3390661e-01   4.5825353e-01
   1.4010000e+00  -1.3545711e-01  -6.3308837e-01   4.9763126e-01
   1.4020000e+00  -1.4372496e-01  -6.3202235e-01   4.8829738e-01
   1.4030000e+00  -1.9987876e-01  -6.3104431e-01   4.3116555e-01
   1.4040000e+00  -2.9835119e-01  -6.3017943e-01   3.3182823e-01
   1.4050000e+00  -4.2939430e-01  -6.2940355e-01   2.0000926e-01
   1.4060000e+00  -5.7977186e-01  -6.2838384e-01   4.8611978e-02
   1.4070000e+00  -7.3499832e-01  -6.2745454e-01  -1.0754378e-01
   1.4080000e+00  -8.7981311e-01  -6.2664070e-01  -2.5317240e-01
   1.4090000e+00  -9.9993706e-01  -6.2591832e-01  -3.7401875e-01
   1.4100000e+00  -1.0832095e+00  -6.2495596e-01  -4.5825353e-01
   1.4110000e+00  -1.1217177e+00  -6.2408646e-01  -4.9763126e-01
   1.4120000e+00  -1.1116322e+00  -6.2333478e-01  -4.8829738e-01
   1.4130000e+00  -1.0538426e+00  -6.2267701e-01  -4.3116555e-01
   1.4140000e+00  -9.5361128e-01  -6.2178305e-01  -3.3182823e-01
   1.4150000e+00  -8.2099366e-01  -6.2098440e-01  -2.0000926e-01
   1.4160000e+00  -6.6891796e-01  -6.2030598e-01  -4.8611978e-02
   1.4170000e+00  -5.1218020e-01  -6.1972398e-01   1.0754378e-01
   1.4180000e+00  -3.6573703e-01  -6.1890944e-01   2.5317240e-01
   1.4190000e+00  -2.4417397e-01  -6.1819272e-01   3.7401875e-01
   1.4200000e+00  -1.5934514e-01  -6.1759867e-01   4.5825353e-01
   1.4210000e+00  -1.1947232e-01  -6.1710359e-01   4.9763126e-01
   1.4220000e+00  -1.2808209e-01  -6.1637948e-01   4.8829738e-01
   1.4230000e+00  -1.8459019e-01  -6.1575574e-01   4.3116555e-01
   1.4240000e+00  -2.8342895e-01  -6.1525718e-01   3.3182823e-01
   1.4250000e+00  -4.1485092e-01  -6.1486017e-01   2.0000926e-01
   1.4260000e+00  -5.6562553e-01  -6.1423751e-01   4.8611978e-02
   1.4270000e+00  -7.2126159e-01  -6.1371781e-01  -1.0754378e-01
   1.4280000e+00  -8.6649826e-01  -6.1332586e-01  -2.5317240e-01
   1.4290000e+00  -9.8705684e-01  -6.1303809e-01  -3.7401875e-01
   1.4300000e+00  -1.0707815e+00  -6.1252794e-01  -4.5825353e-01
   1.4310000e+00  -1.1097546e+00  -6.1212337e-01  -4.9763126e-01
   1.4320000e+00  -1.1001465e+00  -6.1184912e-01  -4.8829738e-01
   1.4330000e+00  -1.0428473e+00  -6.1168170e-01  -4.3116555e-01
   1.4340000e+00  -9.4312337e-01  -6.1129513e-01  -3.3182823e-01
   1.4350000e+00  -8.1102601e-01  -6.1101675e-01  -2.0000926e-01
   1.4360000e+00  -6.5948327e-01  -6.1087129e-01  -4.8611978e-02
   1.4370000e+00  -5.0329156e-01  -6.1083534e-01   1.0754378e-01
   1.4380000e+00  -3.5741056e-01  -6.1058296e-01   2.5317240e-01
   1.4390000e+00  -2.3642297e-01  -6.1044172e-01   3.7401875e-01
   1.4400000e+00  -1.5218285e-01  -6.1043638e-01   4.5825353e-01
   1.4410000e+00  -1.1291209e-01  -6.1054336e-01   4.9763126e-01
   1.4420000e+00  -1.2213940e-01  -6.1043678e-01   4.8829738e-01
   1.4430000e+00  -1.7927666e-01  -6.1044221e-01   4.3116555e-01
   1.4440000e+00  -2.7875471e-01  -6.1058294e-01   3.3182823e-01
   1.4450000e+00  -4.1082460e-01  -6.1083386e-01   2.0000926e-01
   1.4460000e+00  -5.6225531e-01  -6.1086729e-01   4.8611978e-02
   1.4470000e+00  -7.1855228e-01  -6.1100850e-01  -1.0754378e-01
   1.4480000e+00  -8.6445283e-01  -6.1128043e-01  -2.5317240e-01
   1.4490000e+00  -9.8567667e-01  -6.1165792e-01  -3.7401875e-01
   1.4500000e+00  -1.0700672e+00  -6.1181362e-01  -4.5825353e-01
   1.4510000e+00  -1.1097039e+00  -6.1207262e-01  -4.9763126e-01
   1.4520000e+00  -1.1007553e+00  -6.1245792e-01  -4.8829738e-01
   1.4530000e+00  -1.0441100e+00  -6.1294441e-01  -4.3116555e-01
   1.4540000e+00  -9.4503268e-01  -6.1320445e-01  -3.3182823e-01
   1.4550000e+00  -8.1357268e-01  -6.1356342e-01  -2.0000926e-01
   1.4560000e+00  -6.6265636e-01  -6.1404438e-01  -4.8611978e-02
   1.4570000e+00  -5.0707840e-01  -6.1462218e-01   1.0754378e-01
   1.4580000e+00  -3.6179641e-01  -6.1496881e-01   2.5317240e-01
   1.4590000e+00  -2.4139123e-01  -6.1540998e-01   3.7401875e-01
   1.4600000e+00  -1.5771526e-01  -6.1596879e-01   4.5825353e-01
   1.4610000e+00  -1.1898882e-01  -6.1662009e-01   4.9763126e-01
   1.4620000e+00  -1.2873808e-01  -6.1703546e-01   4.8829738e-01
   1.4630000e+00  -1.8637548e-01  -6.1754103e-01   4.3116555e-01
   1.4640000e+00  -2.8633170e-01  -6.1815993e-01   3.3182823e-01
   1.4650000e+00  -4.1885774e-01  -6.1886700e-01   2.0000926e-01
   1.4660000e+00  -5.7072131e-01  -6.1933328e-01   4.8611978e-02
   1.4670000e+00  -7.2742923e-01  -6.1988545e-01  -1.0754378e-01
   1.4680000e+00  -8.7371907e-01  -6.2054667e-01  -2.5317240e-01
   1.4690000e+00  -9.9531050e-01  -6.2129176e-01  -3.7401875e-01
   1.4700000e+00  -1.0800447e+00  -6.2179115e-01  -4.5825353e-01
   1.4710000e+00  -1.1200034e+00  -6.2237211e-01  -4.9763126e-01
   1.4720000e+00  -1.1113553e+00  -6.2305788e-01  -4.8829738e-01
   1.4730000e+00  -1.0549888e+00  -6.2382323e-01  -4.3116555e-01
   1.4740000e+00  -9.5616615e-01  -6.2433792e-01  -3.3182823e-01
   1.4750000e+00  -8.2493914e-01  -6.2492989e-01  -2.0000926e-01
   1.4760000e+00  -6.7423442e-01  -6.2562244e-01  -4.8611978e-02
   1.4770000e+00  -5.1884650e-01  -6.2639028e-01   1.0754378e-01
   1.4780000e+00  -3.7373007e-01  -6.2690248e-01   2.5317240e-01
   1.4790000e+00  -2.5346892e-01  -6.2748767e-01   3.7401875e-01
   1.4800000e+00  -1.6991568e-01  -6.2816921e-01   4.5825353e-01
   1.4810000e+00  -1.3129049e-01  -6.2892176e-01   4.9763126e-01
   1.4820000e+00  -1.4111630e-01  -6.2941369e-01   4.8829738e-01
   1.4830000e+00  -1.9880878e-01  -6.2997433e-01   4.3116555e-01
   1.4840000e+00  -2.9879884e-01  -6.3062707e-01   3.3182823e-01
   1.4850000e+00  -4.3133727e-01  -6.3134652e-01   2.0000926e-01
   1.4860000e+00  -5.8318845e-01  -6.3180043e-01   4.8611978e-02
   1.4870000e+00  -7.3986252e-01  -6.3231875e-01  -1.0754378e-01
   1.4880000e+00  -8.8609730e-01  -6.3292490e-01  -2.5317240e-01
   1.4890000e+00  -1.0076122e+00  -6.3359343e-01  -3.7401875e-01
   1.4900000e+00  -1.0922451e+00  -6.3399157e-01  -4.5825353e-01
   1.4910000e+00  -1.1320811e+00  -6.3444979e-01  -4.9763126e-01
   1.4920000e+00  -1.1232889e+00  -6.3499155e-01  -4.8829738e-01
   1.4930000e+00  -1.0667569e+00  -6.3559134e-01  -4.3116555e-01
   1.4940000e+00  -9.6774422e-01  -6.3591598e-01  -3.3182823e-01
   1.4950000e+00  -8.3630561e-01  -6.3629636e-01  -2.0000926e-01
   1.4960000e+00  -6.8536789e-01  -6.3675591e-01  -4.8611978e-02
   1.4970000e+00  -5.2972533e-01  -6.3726911e-01   1.0754378e-01
   1.4980000e+00  -3.8437870e-01  -6.3755110e-01   2.5317240e-01
   1.4990000e+00  -2.6384075e-01  -6.3785949e-01   3.7401875e-01
   1.5000000e+00  -1.7994847e-01  -6.3820200e-01   4.5825353e-01
   1.5010000e+00  -1.4092433e-01  -6.3855560e-01   4.9763126e-01
   1.5020000e+00  -1.5029037e-01  -6.3858775e-01   4.8829738e-01
   1.5030000e+00  -2.0753665e-01  -6.3870221e-01   4.3116555e-01
   1.5040000e+00  -3.0713983e-01  -6.3896806e-01   3.3182823e-01
   1.5050000e+00  -4.3937040e-01  -6.3937966e-01   2.0000926e-01
   1.5060000e+00  -5.9105207e-01  -6.3966405e-01   4.8611978e-02
   1.5070000e+00  -7.4747327e-01  -6.3992949e-01  -1.0754378e-01
   1.5080000e+00  -8.9318464e-01  -6.4001223e-01  -2.5317240e-01
   1.5090000e+00  -1.0136889e+00  -6.3967016e-01  -3.7401875e-01
   1.5100000e+00  -1.0966503e+00  -6.3839675e-01  -4.5825353e-01
   1.5110000e+00  -1.1338797e+00  -6.3624844e-01  -4.9763126e-01
   1.5120000e+00  -1.1213625e+00  -6.3306511e-01  -4.8829738e-01
   1.5130000e+00  -1.0598708e+00  -6.2870527e-01  -4.3116555e-01
   1.5140000e+00  -9.5466616e-01  -6.2283793e-01  -3.3182823e-01
   1.5150000e+00  -8.1577570e-01  -6.1576644e-01  -2.0000926e-01
   1.5160000e+00  -6.5619892e-01  -6.0758694e-01  -4.8611978e-02
   1.5170000e+00  -4.9084682e-01  -5.9839060e-01   1.0754378e-01
   1.5180000e+00  -3.3493811e-01  -5.8811051e-01   2.5317240e-01
   1.5190000e+00  -2.0299015e-01  -5.7700889e-01   3.7401875e-01
   1.5200000e+00  -1.0690774e-01  -5.6516127e-01   4.5825353e-01
   1.5210000e+00  -5.4964819e-02  -5.5259608e-01   4.9763126e-01
   1.5220000e+00  -5.0811845e-02  -5.3910923e-01   4.8829738e-01
   1.5230000e+00  -9.3836868e-02  -5.2500242e-01   4.3116555e-01
   1.5240000e+00  -1.7852005e-01  -5.1034828e-01   3.3182823e-01
   1.5250000e+00  -2.9518244e-01  -4.9519169e-01   2.0000926e-01
   1.5260000e+00  -4.3079370e-01  -4.7940568e-01   4.8611978e-02
   1.5270000e+00  -5.7078648e-01  -4.6324270e-01  -1.0754378e-01
   1.5280000e+00  -6.9994760e-01  -4.4677519e-01  -2.5317240e-01
   1.5290000e+00  -8.0406613e-01  -4.3004739e-01  -3.7401875e-01
   1.5300000e+00  -8.7118450e-01  -4.1293097e-01  -4.5825353e-01
   1.5310000e+00  -8.9331096e-01  -3.9567969e-01  -4.9763126e-01
   1.5320000e+00  -8.6666311e-01  -3.7836573e-01  -4.8829738e-01
   1.5330000e+00  -7.9219867e-01  -3.6103312e-01  -4.3116555e-01
   1.5340000e+00  -6.7538254e-01  -3.4355430e-01  -3.3182823e-01
   1.5350000e+00  -5.2619150e-01  -3.2618224e-01  -2.0000926e-01
   1.5360000e+00  -3.5760103e-01  -3.0898905e-01  -4.8611978e-02
   1.5370000e+00  -1.8447507e-01  -2.9201885e-01   1.0754378e-01
   1.5380000e+00  -2.1972432e-02  -2.7514483e-01   2.5317240e-01
   1.5390000e+00   1.1539952e-01  -2.5861923e-01   3.7401875e-01
   1.5400000e+00   2.1573918e-01  -2.4251435e-01   4.5825353e-01
   1.5410000e+00   2.7075672e-01  -2.2687455e-01   4.9763126e-01
   1.5420000e+00   2.7672564e-01  -2.1157174e-01   4.8829738e-01
   1.5430000e+00   2.3430604e-01  -1.9685951e-01   4.3116555e-01
   1.5440000e+00   1.4901744e-01  -1.8281080e-01   3.3182823e-01
   1.5450000e+00   3.0539100e-02  -1.6947016e-01   2.0000926e-01
   1.5460000e+00  -1.0809011e-01  -1.5670209e-01   4.8611978e-02
   1.5470000e+00  -2.5231259e-01  -1.4476881e-01  -1.0754378e-01
   1.5480000e+00  -3.8691756e-01  -1.3374516e-01  -2.5317240e-01
   1.5490000e+00  -4.9769439e-01  -1.2367564e-01  -3.7401875e-01
   1.5500000e+00  -5.7269361e-01  -1.1444008e-01  -4.5825353e-01
   1.5510000e+00  -6.0389984e-01  -1.0626857e-01  -4.9763126e-01
   1.5520000e+00  -5.8752466e-01  -9.9227280e-02  -4.8829738e-01
   1.5530000e+00  -5.2452652e-01  -9.3360966e-02  -4.3116555e-01
   1.5540000e+00  -4.2034977e-01  -8.8521537e-02  -3.3182823e-01
   1.5550000e+00  -2.8502730e-01  -8.5018040e-02  -2.0000926e-01
   1.5560000e+00  -1.3156683e-01  -8.2954848e-02  -4.8611978e-02
   1.5570000e+00   2.5147697e-02  -8.2396082e-02   1.0754378e-01
   1.5580000e+00   1.6995396e-01  -8.3218440e-02   2.5317240e-01
   1.5590000e+00   2.8839883e-01  -8.5619913e-02   3.7401875e-01
   1.5600000e+00   3.6865026e-01  -8.9603270e-02   4.5825353e-01
   1.5610000e+00   4.0251611e-01  -9.5115151e-02   4.9763126e-01
   1.5620000e+00   3.8641399e-01  -1.0188339e-01   4.8829738e-01
   1.5630000e+00   3.2111243e-01  -1.1005312e-01   4.3116555e-01
   1.5640000e+00   2.1226208e-01  -1.1956616e-01   3.3182823e-01
   1.5650000e+00   6.9677880e-02  -1.3033138e-01   2.0000926e-01
   1.5660000e+00  -9.3451530e-02  -1.4206351e-01   4.8611978e-02
   1.5670000e+00  -2.6244075e-01  -1.5489697e-01  -1.0754378e-01
   1.5680000e+00  -4.2195251e-01  -1.6878011e-01  -2.5317240e-01
   1.5690000e+00  -5.5765204e-01  -1.8363329e-01  -3.7401875e-01
   1.5700000e+00  -6.5743805e-01  -1.9918452e-01  -4.5825353e-01
   1.5710000e+00  -7.1320144e-01  -2.1557017e-01  -4.9763126e-01
   1.5720000e+00  -7.2103686e-01  -2.3273948e-01  -4.8829738e-01
   1.5730000e+00  -6.8177498e-01  -2.5060942e-01  -4.3116555e-01
   1.5740000e+00  -6.0071938e-01  -2.6889115e-01  -3.3182823e-01
   1.5750000e+00  -4.8773972e-01  -2.8773047e-01  -2.0000926e-01
   1.5760000e+00  -3.5568895e-01  -3.0707697e-01  -4.8611978e-02
   1.5770000e+00  -2.1930453e-01  -3.2684831e-01   1.0754378e-01
   1.5780000e+00  -9.3583700e-02  -3.4675610e-01   2.5317240e-01
   1.5790000e+00   7.0729609e-03  -3.6694579e-01   3.7401875e-01
   1.5800000e+00   7.0886229e-02  -3.8736730e-01   4.5825353e-01
   1.5810000e+00   8.9692788e-02  -4.0793848e-01   4.9763126e-01
   1.5820000e+00   5.9928568e-02  -4.2836882e-01   4.8829738e-01
   1.5830000e+00  -1.7640348e-02  -4.4880590e-01   4.3116555e-01
   1.5840000e+00  -1.3737166e-01  -4.6919990e-01   3.3182823e-01
   1.5850000e+00  -2.8945920e-01  -4.8946846e-01   2.0000926e-01
   1.5860000e+00  -4.6070674e-01  -5.0931871e-01   4.8611978e-02
   1.5870000e+00  -6.3644438e-01  -5.2890060e-01  -1.0754378e-01
   1.5880000e+00  -8.0133659e-01  -5.4816419e-01  -2.5317240e-01
   1.5890000e+00  -9.4104553e-01  -5.6702678e-01  -3.7401875e-01
   1.5900000e+00  -1.0433966e+00  -5.8514306e-01  -4.5825353e-01
   1.5910000e+00  -1.1003734e+00  -6.0274211e-01  -4.9763126e-01
   1.5920000e+00  -1.1080877e+00  -6.1979035e-01  -4.8829738e-01
   1.5930000e+00  -1.0673675e+00  -6.3620198e-01  -4.3116555e-01
   1.5940000e+00  -9.8349036e-01  -6.5166213e-01  -3.3182823e-01
   1.5950000e+00  -8.6628556e-01  -6.6627631e-01  -2.0000926e-01
   1.5960000e+00  -7.2856376e-01  -6.7995178e-01  -4.8611978e-02
   1.5970000e+00  -5.8503881e-01  -6.9258259e-01   1.0754378e-01
   1.5980000e+00  -4.5063433e-01  -7.0380674e-01   2.5317240e-01
   1.5990000e+00  -3.3997047e-01  -7.1398921e-01   3.7401875e-01
   1.6000000e+00  -2.6500637e-01  -7.2325990e-01   4.5825353e-01
   1.6010000e+00  -2.3412587e-01  -7.3175714e-01   4.9763126e-01
   1.6020000e+00  -2.5104814e-01  -7.3934553e-01   4.8829738e-01
   1.6030000e+00  -3.1540396e-01  -7.4656951e-01   4.3116555e-01
   1.6040000e+00  -4.2182984e-01  -7.5365808e-01   3.3182823e-01
   1.6050000e+00  -5.6074553e-01  -7.6075479e-01   2.0000926e-01
   1.6060000e+00  -7.1905592e-01  -7.6766790e-01   4.8611978e-02
   1.6070000e+00  -8.8227294e-01  -7.7472916e-01  -1.0754378e-01
   1.6080000e+00  -1.0351157e+00  -7.8194328e-01  -2.5317240e-01
   1.6090000e+00  -1.1632498e+00  -7.8923101e-01  -3.7401875e-01
   1.6100000e+00  -1.2543616e+00  -7.9610809e-01  -4.5825353e-01
   1.6110000e+00  -1.3006048e+00  -8.0297354e-01  -4.9763126e-01
   1.6120000e+00  -1.2981466e+00  -8.0984925e-01  -4.8829738e-01
   1.6130000e+00  -1.2478793e+00  -8.1671376e-01  -4.3116555e-01
   1.6140000e+00  -1.1550407e+00  -8.2321249e-01  -3.3182823e-01
   1.6150000e+00  -1.0297179e+00  -8.2970866e-01  -2.0000926e-01
   1.6160000e+00  -8.8483923e-01  -8.3622725e-01  -4.8611978e-02
   1.6170000e+00  -7.3518726e-01  -8.4273103e-01   1.0754378e-01
   1.6180000e+00  -5.9561376e-01  -8.4878617e-01   2.5317240e-01
   1.6190000e+00  -4.8079266e-01  -8.5481140e-01   3.7401875e-01
   1.6200000e+00  -4.0257875e-01  -8.6083228e-01   4.5825353e-01
   1.6210000e+00  -3.6917953e-01  -8.6681080e-01   4.9763126e-01
   1.6220000e+00  -3.8400737e-01  -8.7230475e-01   4.8829738e-01
   1.6230000e+00  -4.4657569e-01  -8.7774124e-01   4.3116555e-01
   1.6240000e+00  -5.5131800e-01  -8.8314623e-01   3.3182823e-01
   1.6250000e+00  -6.8847177e-01  -8.8848102e-01   2.0000926e-01
   1.6260000e+00  -8.4468434e-01  -8.9329632e-01   4.8611978e-02
   1.6270000e+00  -1.0055701e+00  -8.9802628e-01  -1.0754378e-01
   1.6280000e+00  -1.1558696e+00  -9.0269718e-01  -2.5317240e-01
   1.6290000e+00  -1.2812884e+00  -9.0726969e-01  -3.7401875e-01
   1.6300000e+00  -1.3695425e+00  -9.1128894e-01  -4.5825353e-01
   1.6310000e+00  -1.4128259e+00  -9.1519462e-01  -4.9763126e-01
   1.6320000e+00  -1.4073106e+00  -9.1901319e-01  -4.8829738e-01
   1.6330000e+00  -1.3538703e+00  -9.2270477e-01  -4.3116555e-01
   1.6340000e+00  -1.2576280e+00  -9.2579973e-01  -3.3182823e-01
   1.6350000e+00  -1.1287674e+00  -9.2875811e-01  -2.0000926e-01
   1.6360000e+00  -9.8022187e-01  -9.3160989e-01  -4.8611978e-02
   1.6370000e+00  -8.2677046e-01  -9.3431424e-01   1.0754378e-01
   1.6380000e+00  -6.8323427e-01  -9.3640667e-01   2.5317240e-01
   1.6390000e+00  -5.6430300e-01  -9.3832174e-01   3.7401875e-01
   1.6400000e+00  -4.8182310e-01  -9.4007663e-01   4.5825353e-01
   1.6410000e+00  -4.4399481e-01  -9.4162607e-01   4.9763126e-01
   1.6420000e+00  -4.5419618e-01  -9.4249357e-01   4.8829738e-01
   1.6430000e+00  -5.1200708e-01  -9.4317263e-01   4.3116555e-01
   1.6440000e+00  -6.1190048e-01  -9.4372871e-01   3.3182823e-01
   1.6450000e+00  -7.4415899e-01  -9.4416824e-01   2.0000926e-01
   1.6460000e+00  -8.9545173e-01  -9.4406370e-01   4.8611978e-02
   1.6470000e+00  -1.0514829e+00  -9.4393911e-01  -1.0754378e-01
   1.6480000e+00  -1.1970470e+00  -9.4387463e-01  -2.5317240e-01
   1.6490000e+00  -1.3178899e+00  -9.4387115e-01  -3.7401875e-01
   1.6500000e+00  -1.4017363e+00  -9.4348273e-01  -4.5825353e-01
   1.6510000e+00  -1.4408159e+00  -9.4318460e-01  -4.9763126e-01
   1.6520000e+00  -1.4313041e+00  -9.4300668e-01  -4.8829738e-01
   1.6530000e+00  -1.3740671e+00  -9.4290152e-01  -4.3116555e-01
   1.6540000e+00  -1.2741925e+00  -9.4236424e-01  -3.3182823e-01
   1.6550000e+00  -1.1418901e+00  -9.4188087e-01  -2.0000926e-01
   1.6560000e+00  -9.9009692e-01  -9.4148494e-01  -4.8611978e-02
   1.6570000e+00  -8.3359802e-01  -9.4114180e-01   1.0754378e-01
   1.6580000e+00  -6.8720524e-01  -9.4037764e-01   2.5317240e-01
   1.6590000e+00  -5.6564900e-01  -9.3966775e-01   3.7401875e-01
   1.6600000e+00  -4.8079246e-01  -9.3904599e-01   4.5825353e-01
   1.6610000e+00  -4.4084318e-01  -9.3847445e-01   4.9763126e-01
   1.6620000e+00  -4.4916865e-01  -9.3746603e-01   4.8829738e-01
   1.6630000e+00  -5.0533841e-01  -9.3650397e-01   4.3116555e-01
   1.6640000e+00  -6.0379361e-01  -9.3562185e-01   3.3182823e-01
   1.6650000e+00  -7.3477265e-01  -9.3478191e-01   2.0000926e-01
   1.6660000e+00  -8.8488810e-01  -9.3350008e-01   4.8611978e-02
   1.6670000e+00  -1.0398003e+00  -9.3225654e-01  -1.0754378e-01
   1.6680000e+00  -1.1842570e+00  -9.3108458e-01  -2.5317240e-01
   1.6690000e+00  -1.3039654e+00  -9.2994664e-01  -3.7401875e-01
   1.6700000e+00  -1.3866158e+00  -9.2836224e-01  -4.5825353e-01
   1.6710000e+00  -1.4244392e+00  -9.2680794e-01  -4.9763126e-01
   1.6720000e+00  -1.4136141e+00  -9.2531668e-01  -4.8829738e-01
   1.6730000e+00  -1.3550166e+00  -9.2385109e-01  -4.3116555e-01
   1.6740000e+00  -1.2537632e+00  -9.2193500e-01  -3.3182823e-01
   1.6750000e+00  -1.1200499e+00  -9.2004067e-01  -2.0000926e-01
   1.6760000e+00  -9.6681258e-01  -9.1820061e-01  -4.8611978e-02
   1.6770000e+00  -8.0883393e-01  -9.1637771e-01   1.0754378e-01
   1.6780000e+00  -6.6221434e-01  -9.1538675e-01   2.5317240e-01
   1.6790000e+00  -5.3972998e-01  -9.1374873e-01   3.7401875e-01
   1.6800000e+00  -4.5282564e-01  -9.1107917e-01   4.5825353e-01
   1.6810000e+00  -4.0977770e-01  -9.0740897e-01   4.9763126e-01
   1.6820000e+00  -4.1346077e-01  -9.0175816e-01   4.8829738e-01
   1.6830000e+00  -4.6616024e-01  -8.9732579e-01   4.3116555e-01
   1.6840000e+00  -5.6369957e-01  -8.9552781e-01   3.3182823e-01
   1.6850000e+00  -6.9681805e-01  -8.9682730e-01   2.0000926e-01
   1.6860000e+00  -8.5333749e-01  -9.0194947e-01   4.8611978e-02
   1.6870000e+00  -1.0128008e+00  -9.0525699e-01  -1.0754378e-01
   1.6880000e+00  -1.1546219e+00  -9.0144945e-01  -2.5317240e-01
   1.6890000e+00  -1.2585339e+00  -8.8451517e-01  -3.7401875e-01
   1.6900000e+00  -1.3086650e+00  -8.5041146e-01  -4.5825353e-01
   1.6910000e+00  -1.2892769e+00  -7.9164560e-01  -4.9763126e-01
   1.6920000e+00  -1.1928384e+00  -7.0454100e-01  -4.8829738e-01
   1.6930000e+00  -1.0194823e+00  -5.8831673e-01  -4.3116555e-01
   1.6940000e+00  -7.7149675e-01  -4.3966851e-01  -3.3182823e-01
   1.6950000e+00  -4.7232658e-01  -2.7231733e-01  -2.0000926e-01
   1.6960000e+00  -1.4341239e-01  -9.4800414e-02  -4.8611978e-02
   1.6970000e+00   1.9382991e-01   8.6286131e-02   1.0754378e-01
   1.6980000e+00   5.1185632e-01   2.5868392e-01   2.5317240e-01
   1.6990000e+00   8.1283076e-01   4.3881202e-01   3.7401875e-01
   1.7000000e+00   1.0941145e+00   6.3586094e-01   4.5825353e-01
   1.7010000e+00   1.3555856e+00   8.5795433e-01   4.9763126e-01
   1.7020000e+00   1.6075504e+00   1.1192530e+00   4.8829738e-01
   1.7030000e+00   1.8322932e+00   1.4011276e+00   4.3116555e-01
   1.7040000e+00   2.0218604e+00   1.6900322e+00   3.3182823e-01
   1.7050000e+00   2.1695820e+00   1.9695727e+00   2.0000926e-01
   1.7060000e+00   2.2647302e+00   2.2161182e+00   4.8611978e-02
   1.7070000e+00   2.3196863e+00   2.4272301e+00  -1.0754378e-01
   1.7080000e+00   2.3430180e+00   2.5961904e+00  -2.5317240e-01
   1.7090000e+00   2.3449813e+00   2.7190000e+00  -3.7401875e-01
   1.7100000e+00   2.3383558e+00   2.7966093e+00  -4.5825353e-01
   1.7110000e+00   2.3258100e+00   2.8234413e+00  -4.9763126e-01
   1.7120000e+00   2.3097475e+00   2.7980448e+00  -4.8829738e-01
   1.7130000e+00   2.2889683e+00   2.7201338e+00  -4.3116555e-01
   1.7140000e+00   2.2626235e+00   2.5944517e+00  -3.3182823e-01
   1.7150000e+00   2.2184578e+00   2.4184671e+00  -2.0000926e-01
   1.7160000e+00   2.1475110e+00   2.1961229e+00  -4.8611978e-02
   1.7170000e+00   2.0427646e+00   1.9352208e+00   1.0754378e-01
   1.7180000e+00   1.8932974e+00   1.6401250e+00   2.5317240e-01
   1.7190000e+00   1.7118766e+00   1.3378579e+00   3.7401875e-01
   1.7200000e+00   1.5065027e+00   1.0482492e+00   4.5825353e-01
   1.7210000e+00   1.2855769e+00   7.8794567e-01   4.9763126e-01
   1.7220000e+00   1.0665735e+00   5.7827610e-01   4.8829738e-01
   1.7230000e+00   8.3595495e-01   4.0478940e-01   4.3116555e-01
   1.7240000e+00   5.8972632e-01   2.5789808e-01   3.3182823e-01
   1.7250000e+00   3.2522921e-01   1.2521996e-01   2.0000926e-01
   1.7260000e+00   3.4495734e-02  -1.4116244e-02   4.8611978e-02
   1.7270000e+00  -2.6136936e-01  -1.5382558e-01  -1.0754378e-01
   1.7280000e+00  -5.4661859e-01  -2.9344619e-01  -2.5317240e-01
   1.7290000e+00  -8.0421110e-01  -4.3019236e-01  -3.7401875e-01
   1.7300000e+00  -1.0131102e+00  -5.5485671e-01  -4.5825353e-01
   1.7310000e+00  -1.1715893e+00  -6.7395803e-01  -4.9763126e-01
   1.7320000e+00  -1.2775876e+00  -7.8929020e-01  -4.8829738e-01
   1.7330000e+00  -1.3344824e+00  -9.0331688e-01  -4.3116555e-01
   1.7340000e+00  -1.3525480e+00  -1.0207197e+00  -3.3182823e-01
   1.7350000e+00  -1.3397105e+00  -1.1397013e+00  -2.0000926e-01
   1.7360000e+00  -1.3085083e+00  -1.2598964e+00  -4.8611978e-02
   1.7370000e+00  -1.2724304e+00  -1.3799741e+00   1.0754378e-01
   1.7380000e+00  -1.2449380e+00  -1.4981104e+00   2.5317240e-01
   1.7390000e+00  -1.2365454e+00  -1.6105641e+00   3.7401875e-01
   1.7400000e+00  -1.2554384e+00  -1.7136919e+00   4.5825353e-01
   1.7410000e+00  -1.3062733e+00  -1.8039045e+00   4.9763126e-01
   1.7420000e+00  -1.3898155e+00  -1.8781129e+00   4.8829738e-01
   1.7430000e+00  -1.5028096e+00  -1.9339752e+00   4.3116555e-01
   1.7440000e+00  -1.6384546e+00  -1.9702828e+00   3.3182823e-01
   1.7450000e+00  -1.7870042e+00  -1.9870134e+00   2.0000926e-01
   1.7460000e+00  -1.9362759e+00  -1.9848878e+00   4.8611978e-02
   1.7470000e+00  -2.0740342e+00  -1.9664904e+00  -1.0754378e-01
   1.7480000e+00  -2.1877528e+00  -1.9345804e+00  -2.5317240e-01
   1.7490000e+00  -2.2660303e+00  -1.8920116e+00  -3.7401875e-01
   1.7500000e+00  -2.3001362e+00  -1.8418827e+00  -4.5825353e-01
   1.7510000e+00  -2.2829512e+00  -1.7853200e+00  -4.9763126e-01
   1.7520000e+00  -2.2117246e+00  -1.7234272e+00  -4.8829738e-01
   1.7530000e+00  -2.0880467e+00  -1.6568811e+00  -4.3116555e-01
   1.7540000e+00  -1.9173157e+00  -1.5854875e+00  -3.3182823e-01
   1.7550000e+00  -1.7108766e+00  -1.5108673e+00  -2.0000926e-01
   1.7560000e+00  -1.4827104e+00  -1.4340984e+00  -4.8611978e-02
   1.7570000e+00  -1.2488910e+00  -1.3564348e+00   1.0754378e-01
   1.7580000e+00  -1.0257164e+00  -1.2788888e+00   2.5317240e-01
   1.7590000e+00  -8.2952906e-01  -1.2035478e+00   3.7401875e-01
   1.7600000e+00  -6.7373615e-01  -1.1319897e+00   4.5825353e-01
   1.7610000e+00  -5.6785401e-01  -1.0654853e+00   4.9763126e-01
   1.7620000e+00  -5.1649858e-01  -1.0047960e+00   4.8829738e-01
   1.7630000e+00  -5.1915388e-01  -9.5031944e-01   4.3116555e-01
   1.7640000e+00  -5.7003986e-01  -9.0186810e-01   3.3182823e-01
   1.7650000e+00  -6.5883608e-01  -8.5884534e-01   2.0000926e-01
   1.7660000e+00  -7.7117678e-01  -8.1978875e-01   4.8611978e-02
   1.7670000e+00  -8.9238848e-01  -7.8484470e-01  -1.0754378e-01
   1.7680000e+00  -1.0067014e+00  -7.5352901e-01  -2.5317240e-01
   1.7690000e+00  -1.0994574e+00  -7.2543864e-01  -3.7401875e-01
   1.7700000e+00  -1.1577775e+00  -6.9952397e-01  -4.5825353e-01
   1.7710000e+00  -1.1744685e+00  -6.7683727e-01  -4.9763126e-01
   1.7720000e+00  -1.1459014e+00  -6.5760401e-01  -4.8829738e-01
   1.7730000e+00  -1.0730100e+00  -6.4184446e-01  -4.3116555e-01
   1.7740000e+00  -9.6110623e-01  -6.2927799e-01  -3.3182823e-01
   1.7750000e+00  -8.1931598e-01  -6.1930672e-01  -2.0000926e-01
   1.7760000e+00  -6.5967397e-01  -6.1106200e-01  -4.8611978e-02
   1.7770000e+00  -4.9602653e-01  -6.0357031e-01   1.0754378e-01
   1.7780000e+00  -3.4183599e-01  -5.9500839e-01   2.5317240e-01
   1.7790000e+00  -2.1220694e-01  -5.8622569e-01   3.7401875e-01
   1.7800000e+00  -1.1906048e-01  -5.7731401e-01   4.5825353e-01
   1.7810000e+00  -7.0832570e-02  -5.6846383e-01   4.9763126e-01
   1.7820000e+00  -7.1521979e-02  -5.5981936e-01   4.8829738e-01
   1.7830000e+00  -1.2041765e-01  -5.5158320e-01   4.3116555e-01
   1.7840000e+00  -2.1195572e-01  -5.4378396e-01   3.3182823e-01
   1.7850000e+00  -3.3632216e-01  -5.3633142e-01   2.0000926e-01
   1.7860000e+00  -4.8001246e-01  -5.2862444e-01   4.8611978e-02
   1.7870000e+00  -6.2870300e-01  -5.2115922e-01  -1.0754378e-01
   1.7880000e+00  -7.6712555e-01  -5.1395315e-01  -2.5317240e-01
   1.7890000e+00  -8.8099818e-01  -5.0697943e-01  -3.7401875e-01
   1.7900000e+00  -9.5819727e-01  -4.9994374e-01  -4.5825353e-01
   1.7910000e+00  -9.9076500e-01  -4.9313374e-01  -4.9763126e-01
   1.7920000e+00  -9.7486310e-01  -4.8656572e-01  -4.8829738e-01
   1.7930000e+00  -9.1137982e-01  -4.8021426e-01  -4.3116555e-01
   1.7940000e+00  -8.0562918e-01  -4.7380094e-01  -3.3182823e-01
   1.7950000e+00  -6.6760680e-01  -4.6759754e-01  -2.0000926e-01
   1.7960000e+00  -5.1023136e-01  -4.6161938e-01  -4.8611978e-02
   1.7970000e+00  -3.4829850e-01  -4.5584228e-01   1.0754378e-01
   1.7980000e+00  -1.9683005e-01  -4.5000245e-01   2.5317240e-01
   1.7990000e+00  -7.0338331e-02  -4.4435708e-01   3.7401875e-01
   1.8000000e+00   1.9332982e-02  -4.3892055e-01   4.5825353e-01
   1.8010000e+00   6.3961411e-02  -4.3366985e-01   4.9763126e-01
   1.8020000e+00   5.9942700e-02  -4.2835468e-01   4.8829738e-01
   1.8030000e+00   7.9467880e-03  -4.2321877e-01   4.3116555e-01
   1.8040000e+00  -8.6447408e-02  -4.1827564e-01   3.3182823e-01
   1.8050000e+00  -2.1349412e-01  -4.1350337e-01   2.0000926e-01
   1.8060000e+00  -3.6005208e-01  -4.0866406e-01   4.8611978e-02
   1.8070000e+00  -5.1153282e-01  -4.0398904e-01  -1.0754378e-01
   1.8080000e+00  -6.5266348e-01  -3.9949108e-01  -2.5317240e-01
   1.8090000e+00  -7.6916795e-01  -3.9514921e-01  -3.7401875e-01
   1.8100000e+00  -8.4899053e-01  -3.9073700e-01  -4.5825353e-01
   1.8110000e+00  -8.8410560e-01  -3.8647434e-01  -4.9763126e-01
   1.8120000e+00  -8.7067066e-01  -3.8237327e-01  -4.8829738e-01
   1.8130000e+00  -8.0957929e-01  -3.7841373e-01  -4.3116555e-01
   1.8140000e+00  -7.0620814e-01  -3.7437991e-01  -3.3182823e-01
   1.8150000e+00  -5.7049034e-01  -3.7048109e-01  -2.0000926e-01
   1.8160000e+00  -4.1534062e-01  -3.6672864e-01  -4.8611978e-02
   1.8170000e+00  -2.5555955e-01  -3.6310333e-01   1.0754378e-01
   1.8180000e+00  -1.0622680e-01  -3.5939921e-01   2.5317240e-01
   1.8190000e+00   1.8203031e-02  -3.5581572e-01   3.7401875e-01
   1.8200000e+00   1.0588994e-01  -3.5236359e-01   4.5825353e-01
   1.8210000e+00   1.4860689e-01  -3.4902437e-01   4.9763126e-01
   1.8220000e+00   1.4269608e-01  -3.4560131e-01   4.8829738e-01
   1.8230000e+00   8.8880896e-02  -3.4228466e-01   4.3116555e-01
   1.8240000e+00  -7.2563167e-03  -3.3908455e-01   3.3182823e-01
   1.8250000e+00  -1.3597398e-01  -3.3598324e-01   2.0000926e-01
   1.8260000e+00  -2.8418066e-01  -3.3279263e-01   4.8611978e-02
   1.8270000e+00  -4.3723812e-01  -3.2969434e-01  -1.0754378e-01
   1.8280000e+00  -5.7987033e-01  -3.2669793e-01  -2.5317240e-01
   1.8290000e+00  -6.9780505e-01  -3.2378630e-01  -3.7401875e-01
   1.8300000e+00  -7.7903312e-01  -3.2077959e-01  -4.5825353e-01
   1.8310000e+00  -8.1548247e-01  -3.1785121e-01  -4.9763126e-01
   1.8320000e+00  -8.0330753e-01  -3.1501014e-01  -4.8829738e-01
   1.8330000e+00  -7.4340549e-01  -3.1223994e-01  -4.3116555e-01
   1.8340000e+00  -6.4119684e-01  -3.0936861e-01  -3.3182823e-01
   1.8350000e+00  -5.0657093e-01  -3.0656168e-01  -2.0000926e-01
   1.8360000e+00  -3.5243958e-01  -3.0382761e-01  -4.8611978e-02
   1.8370000e+00  -1.9360675e-01  -3.0115053e-01   1.0754378e-01
   1.8380000e+00  -4.5193687e-02  -2.9836609e-01   2.5317240e-01
   1.8390000e+00   7.8386562e-02  -2.9563218e-01   3.7401875e-01
   1.8400000e+00   1.6529679e-01  -2.9295674e-01   4.5825353e-01
   1.8410000e+00   2.0730681e-01  -2.9032445e-01   4.9763126e-01
   1.8420000e+00   2.0071893e-01  -2.8757845e-01   4.8829738e-01
   1.8430000e+00   1.4629639e-01  -2.8486916e-01   4.3116555e-01
   1.8440000e+00   4.9624284e-02  -2.8220395e-01   3.3182823e-01
   1.8450000e+00  -7.9558822e-02  -2.7956808e-01   2.0000926e-01
   1.8460000e+00  -2.2820014e-01  -2.7681212e-01   4.8611978e-02
